* Measurement data measured by REW V5.31.3
* Source: Headset (2- USB-C to 3.5mm Headphone Jack Adapter), MICROPHONE (Master Volume), L, volume: 0.630
* Format: 64k Log Swept Sine, 1 sweep at -30.0 dBFS with no timing reference
* REW Settings:
*  C-weighting compensation: Off
*  Target level: 75.0 dB
* Note: ; 
* Measurement: 6
* Smoothing: 1/24 octave
* Frequency Step: 1/48 octave
* Start Frequency: 1.000 Hz
*
* Freq(Hz) SPL(dB)

20.000000 91.023
20.290514 91.137
20.585247 91.252
20.884262 91.366
21.187621 91.478
21.495385 91.586
21.807621 91.693
22.124391 91.797
22.445763 91.902
22.771804 92.006
23.102580 92.112
23.438160 92.219
23.778616 92.329
24.124017 92.441
24.474435 92.553
24.829943 92.665
25.190615 92.775
25.556526 92.884
25.927752 92.992
26.304370 93.099
26.686459 93.208
27.074098 93.318
27.467368 93.425
27.866351 93.532
28.271129 93.635
28.681786 93.736
29.098409 93.834
29.521083 93.930
29.949897 94.025
30.384940 94.119
30.826303 94.216
31.274076 94.311
31.728353 94.404
32.189229 94.496
32.656800 94.589
33.131163 94.683
33.612416 94.779
34.100659 94.872
34.595995 94.964
35.098525 95.057
35.608355 95.149
36.125591 95.240
36.650340 95.328
37.182712 95.415
37.722816 95.502
38.270766 95.589
38.826675 95.671
39.390660 95.750
39.962836 95.829
40.543324 95.908
41.132243 95.988
41.729717 96.067
42.335870 96.147
42.950828 96.229
43.574718 96.309
44.207671 96.387
44.849818 96.466
45.501292 96.543
46.162230 96.615
46.832768 96.684
47.513046 96.752
48.203206 96.818
48.903391 96.878
49.613746 96.936
50.334420 96.997
51.065562 97.063
51.807325 97.132
52.559862 97.201
53.323330 97.269
54.097888 97.337
54.883697 97.403
55.680920 97.465
56.489724 97.522
57.310276 97.576
58.142747 97.628
58.987311 97.679
59.844142 97.731
60.713419 97.784
61.595324 97.840
62.490038 97.897
63.397749 97.955
64.318645 98.009
65.252917 98.059
66.200761 98.103
67.162372 98.142
68.137952 98.181
69.127703 98.220
70.131830 98.265
71.150543 98.316
72.184054 98.371
73.232577 98.426
74.296331 98.477
75.375536 98.521
76.470417 98.562
77.581203 98.600
78.708123 98.640
79.851413 98.685
81.011310 98.734
82.188055 98.783
83.381893 98.826
84.593072 98.863
85.821845 98.892
87.068466 98.920
88.333195 98.950
89.616296 98.988
90.918034 99.028
92.238681 99.065
93.578512 99.093
94.937804 99.112
96.316841 99.127
97.715909 99.146
99.135300 99.173
100.575309 99.204
102.036234 99.231
103.518381 99.252
105.022056 99.267
106.547574 99.284
108.095251 99.310
109.665409 99.339
111.258374 99.366
112.874479 99.383
114.514058 99.395
116.177454 99.413
117.865011 99.438
119.577082 99.467
121.314021 99.492
123.076191 99.505
124.863957 99.516
126.677692 99.534
128.517773 99.556
130.384582 99.573
132.278507 99.585
134.199944 99.593
136.149290 99.609
138.126952 99.628
140.133341 99.637
142.168875 99.636
144.233975 99.638
146.329073 99.649
148.454604 99.658
150.611009 99.660
152.798738 99.656
155.018244 99.658
157.269991 99.663
159.554446 99.658
161.872084 99.653
164.223387 99.657
166.608845 99.661
169.028953 99.658
171.484215 99.653
173.975141 99.654
176.502250 99.657
179.066067 99.656
181.667125 99.657
184.305965 99.661
186.983136 99.659
189.699194 99.656
192.454706 99.661
195.250243 99.665
198.086387 99.662
200.963728 99.662
203.882864 99.664
206.844403 99.663
209.848961 99.664
212.897161 99.666
215.989639 99.662
219.127037 99.660
222.310008 99.661
225.539214 99.659
228.815326 99.655
232.139026 99.652
235.511005 99.646
238.931965 99.644
242.402616 99.638
245.923681 99.630
249.495892 99.624
253.119991 99.617
256.796733 99.608
260.526882 99.596
264.311215 99.584
268.150517 99.574
272.045588 99.559
275.997237 99.544
280.006287 99.529
284.073571 99.513
288.199935 99.494
292.386238 99.476
296.633349 99.458
300.942152 99.438
305.313544 99.418
309.748434 99.398
314.247743 99.379
318.812408 99.359
323.443377 99.340
328.141615 99.321
332.908098 99.302
337.743817 99.284
342.649778 99.266
347.627002 99.248
352.676523 99.230
357.799393 99.213
362.996675 99.196
368.269452 99.179
373.618819 99.161
379.045889 99.143
384.551792 99.124
390.137671 99.105
395.804689 99.085
401.554025 99.065
407.386873 99.043
413.304448 99.020
419.307980 98.997
425.398716 98.975
431.577926 98.951
437.846892 98.926
444.206919 98.901
450.659331 98.876
457.205468 98.849
463.846692 98.822
470.584384 98.794
477.419946 98.765
484.354799 98.736
491.390386 98.705
498.528170 98.673
505.769634 98.640
513.116286 98.605
520.569654 98.570
528.131286 98.535
535.802756 98.498
543.585660 98.462
551.481616 98.424
559.492266 98.387
567.619276 98.350
575.864337 98.313
584.229163 98.277
592.715493 98.241
601.325094 98.205
610.059754 98.170
618.921292 98.135
627.911550 98.101
637.032397 98.067
646.285731 98.034
655.673476 98.001
665.197585 97.969
674.860038 97.937
684.662844 97.906
694.608043 97.876
704.697703 97.846
714.933922 97.818
725.318829 97.791
735.854584 97.767
746.543379 97.744
757.387435 97.724
768.389009 97.706
779.550388 97.691
790.873894 97.679
802.361881 97.670
814.016740 97.665
825.840893 97.664
837.836800 97.667
850.006956 97.674
862.353892 97.685
874.880176 97.702
887.588413 97.725
900.481245 97.752
913.561355 97.786
926.831463 97.825
940.294327 97.871
953.952750 97.923
967.809570 97.983
981.867670 98.048
996.129973 98.121
1010.599447 98.200
1025.279099 98.286
1040.171984 98.377
1055.281198 98.472
1070.609883 98.572
1086.161229 98.676
1101.938468 98.781
1117.944883 98.888
1134.183801 98.995
1150.658602 99.101
1167.372710 99.205
1184.329602 99.306
1201.532804 99.404
1218.985895 99.498
1236.692504 99.585
1254.656314 99.667
1272.881060 99.743
1291.370534 99.810
1310.128579 99.875
1329.159099 99.933
1348.466049 99.985
1368.053447 100.032
1387.925364 100.074
1408.085935 100.110
1428.539353 100.144
1449.289870 100.174
1470.341803 100.201
1491.699529 100.226
1513.367491 100.249
1535.350196 100.273
1557.652214 100.296
1580.278184 100.321
1603.232812 100.348
1626.520872 100.376
1650.147207 100.407
1674.116731 100.443
1698.434429 100.484
1723.105358 100.529
1748.134649 100.581
1773.527508 100.640
1799.289215 100.705
1825.425129 100.779
1851.940686 100.861
1878.841399 100.952
1906.132863 101.053
1933.820755 101.163
1961.910832 101.285
1990.408937 101.418
2019.320997 101.562
2048.653024 101.718
2078.411119 101.888
2108.601471 102.071
2139.230358 102.267
2170.304151 102.482
2201.829313 102.711
2233.812399 102.959
2266.260061 103.224
2299.179048 103.511
2332.576206 103.819
2366.458481 104.151
2400.832919 104.504
2435.706669 104.883
2471.086985 105.284
2506.981224 105.710
2543.396851 106.154
2580.341441 106.614
2617.822676 107.081
2655.848352 107.541
2694.426377 107.981
2733.564774 108.370
2773.271684 108.694
2813.555364 108.916
2854.424192 109.035
2895.886667 109.007
2937.951414 108.825
2980.627180 108.519
3023.922841 108.109
3067.847402 107.611
3112.409996 107.048
3157.619894 106.451
3203.486496 105.843
3250.019342 105.236
3297.228109 104.645
3345.122616 104.075
3393.712825 103.530
3443.008839 103.011
3493.020912 102.519
3543.759444 102.055
3595.234989 101.617
3647.458251 101.207
3700.440093 100.824
3754.191532 100.468
3808.723747 100.136
3864.048081 99.824
3920.176038 99.542
3977.119293 99.273
4034.889688 99.031
4093.499237 98.809
4152.960131 98.607
4213.284735 98.425
4274.485595 98.259
4336.575440 98.113
4399.567183 97.986
4463.473924 97.877
4528.308954 97.785
4594.085758 97.715
4660.818016 97.662
4728.519605 97.631
4797.204606 97.622
4866.887304 97.633
4937.582192 97.671
5009.303971 97.736
5082.067559 97.827
5155.888088 97.950
5230.780910 98.104
5306.761603 98.289
5383.845967 98.506
5462.050035 98.753
5541.390071 99.021
5621.882575 99.295
5703.544288 99.562
5786.392194 99.782
5870.443523 99.909
5955.715755 99.903
6042.226625 99.737
6129.994125 99.364
6219.036508 98.786
6309.372294 98.003
6401.020268 97.086
6493.999493 96.066
6588.329304 94.998
6684.029322 93.919
6781.119447 92.854
6879.619874 91.817
6979.551087 90.816
7080.933870 89.864
7183.789308 88.969
7288.138791 88.118
7394.004023 87.298
7501.407020 86.498
7610.370119 85.728
7720.915982 84.994
7833.067600 84.295
7946.848298 83.632
8062.281738 83.007
8179.391929 82.416
8298.203226 81.856
8418.740338 81.328
8541.028336 80.837
8665.092650 80.383
8790.959084 79.959
8918.653815 79.568
9048.203399 79.199
9179.634780 78.859
9312.975293 78.549
9448.252668 78.277
9585.495040 78.051
9724.730952 77.873
9865.989362 77.741
10009.299647 77.657
10154.691613 77.616
10302.195497 77.625
10451.841976 77.696
10603.662174 77.831
10757.687664 78.047
10913.950481 78.354
11072.483123 78.759
11233.318560 79.285
11396.490243 79.930
11562.032107 80.779
11729.978580 81.774
11900.364591 83.125
12073.225577 84.625
12248.597487 86.388
12426.516795 88.117
12607.020503 89.132
12790.146152 89.105
12975.931827 87.560
13164.416166 85.886
13355.638371 83.830
13549.638209 81.994
13746.456029 80.469
13946.132763 79.254
14148.709939 78.366
14354.229688 77.637
14562.734753 77.194
14774.268497 76.955
14988.874914 76.964
15206.598638 77.203
15427.484948 77.525
15651.579784 77.677
15878.929752 77.307
16109.582134 76.122
16343.584901 74.117
16580.986719 71.668
16821.836962 69.213
17066.185721 66.660
17314.083813 63.514
17565.582796 60.147
17820.734975 58.238
18079.593414 59.025
18342.211951 61.737
18608.645202 64.574
18878.948580 66.585
19153.178301 67.473
19431.391396 67.575
19713.645729 67.283
20000.000000 66.870
