* Measurement data measured by REW V5.31.3
* Source: Headset (2- USB-C to 3.5mm Headphone Jack Adapter), MICROPHONE (Master Volume), L, volume: 0.630
* Format: 64k Log Swept Sine, 1 sweep at -30.0 dBFS with no timing reference
* REW Settings:
*  C-weighting compensation: Off
*  Target level: 75.0 dB
* Note: ; 
* Measurement: 14
* Smoothing: 1/24 octave
* Frequency Step: 1/48 octave
* Start Frequency: 1.000 Hz
*
* Freq(Hz) SPL(dB)

20.000000 90.786
20.290514 90.904
20.585247 91.022
20.884262 91.137
21.187621 91.249
21.495385 91.356
21.807621 91.460
22.124391 91.560
22.445763 91.660
22.771804 91.758
23.102580 91.856
23.438160 91.955
23.778616 92.056
24.124017 92.158
24.474435 92.261
24.829943 92.363
25.190615 92.463
25.556526 92.562
25.927752 92.661
26.304370 92.760
26.686459 92.860
27.074098 92.962
27.467368 93.062
27.866351 93.162
28.271129 93.259
28.681786 93.355
29.098409 93.448
29.521083 93.539
29.949897 93.629
30.384940 93.719
30.826303 93.811
31.274076 93.902
31.728353 93.991
32.189229 94.078
32.656800 94.165
33.131163 94.253
33.612416 94.342
34.100659 94.429
34.595995 94.513
35.098525 94.597
35.608355 94.681
36.125591 94.763
36.650340 94.841
37.182712 94.917
37.722816 94.994
38.270766 95.070
38.826675 95.141
39.390660 95.209
39.962836 95.278
40.543324 95.347
41.132243 95.417
41.729717 95.486
42.335870 95.558
42.950828 95.630
43.574718 95.701
44.207671 95.770
44.849818 95.839
45.501292 95.907
46.162230 95.968
46.832768 96.027
47.513046 96.083
48.203206 96.136
48.903391 96.182
49.613746 96.225
50.334420 96.270
51.065562 96.319
51.807325 96.370
52.559862 96.420
53.323330 96.470
54.097888 96.518
54.883697 96.564
55.680920 96.606
56.489724 96.643
57.310276 96.677
58.142747 96.709
58.987311 96.741
59.844142 96.775
60.713419 96.811
61.595324 96.849
62.490038 96.891
63.397749 96.932
64.318645 96.971
65.252917 97.005
66.200761 97.033
67.162372 97.056
68.137952 97.078
69.127703 97.102
70.131830 97.129
71.150543 97.163
72.184054 97.199
73.232577 97.235
74.296331 97.266
75.375536 97.291
76.470417 97.311
77.581203 97.329
78.708123 97.349
79.851413 97.374
81.011310 97.403
82.188055 97.433
83.381893 97.459
84.593072 97.479
85.821845 97.493
87.068466 97.506
88.333195 97.523
89.616296 97.549
90.918034 97.579
92.238681 97.605
93.578512 97.624
94.937804 97.634
96.316841 97.640
97.715909 97.650
99.135300 97.668
100.575309 97.689
102.036234 97.706
103.518381 97.714
105.022056 97.716
106.547574 97.720
108.095251 97.730
109.665409 97.744
111.258374 97.755
112.874479 97.754
114.514058 97.749
116.177454 97.749
117.865011 97.756
119.577082 97.768
121.314021 97.776
123.076191 97.773
124.863957 97.768
126.677692 97.771
128.517773 97.779
130.384582 97.784
132.278507 97.786
134.199944 97.784
136.149290 97.792
138.126952 97.805
140.133341 97.809
142.168875 97.804
144.233975 97.805
146.329073 97.816
148.454604 97.827
150.611009 97.831
152.798738 97.830
155.018244 97.837
157.269991 97.846
159.554446 97.847
161.872084 97.847
164.223387 97.856
166.608845 97.865
169.028953 97.866
171.484215 97.864
173.975141 97.868
176.502250 97.873
179.066067 97.873
181.667125 97.874
184.305965 97.877
186.983136 97.874
189.699194 97.868
192.454706 97.870
195.250243 97.871
198.086387 97.863
200.963728 97.858
203.882864 97.855
206.844403 97.850
209.848961 97.846
212.897161 97.844
215.989639 97.836
219.127037 97.830
222.310008 97.829
225.539214 97.825
228.815326 97.822
232.139026 97.818
235.511005 97.814
238.931965 97.815
242.402616 97.812
245.923681 97.808
249.495892 97.807
253.119991 97.805
256.796733 97.802
260.526882 97.796
264.311215 97.791
268.150517 97.787
272.045588 97.778
275.997237 97.770
280.006287 97.761
284.073571 97.751
288.199935 97.738
292.386238 97.726
296.633349 97.713
300.942152 97.698
305.313544 97.682
309.748434 97.667
314.247743 97.652
318.812408 97.634
323.443377 97.617
328.141615 97.600
332.908098 97.582
337.743817 97.565
342.649778 97.547
347.627002 97.528
352.676523 97.510
357.799393 97.492
362.996675 97.473
368.269452 97.454
373.618819 97.435
379.045889 97.415
384.551792 97.396
390.137671 97.376
395.804689 97.356
401.554025 97.335
407.386873 97.314
413.304448 97.293
419.307980 97.271
425.398716 97.250
431.577926 97.228
437.846892 97.206
444.206919 97.184
450.659331 97.162
457.205468 97.140
463.846692 97.116
470.584384 97.093
477.419946 97.070
484.354799 97.047
491.390386 97.024
498.528170 97.001
505.769634 96.976
513.116286 96.952
520.569654 96.927
528.131286 96.903
535.802756 96.879
543.585660 96.854
551.481616 96.830
559.492266 96.805
567.619276 96.781
575.864337 96.756
584.229163 96.733
592.715493 96.709
601.325094 96.686
610.059754 96.662
618.921292 96.639
627.911550 96.616
637.032397 96.594
646.285731 96.572
655.673476 96.551
665.197585 96.530
674.860038 96.509
684.662844 96.489
694.608043 96.469
704.697703 96.449
714.933922 96.430
725.318829 96.413
735.854584 96.397
746.543379 96.383
757.387435 96.371
768.389009 96.362
779.550388 96.355
790.873894 96.351
802.361881 96.351
814.016740 96.355
825.840893 96.363
837.836800 96.376
850.006956 96.395
862.353892 96.419
874.880176 96.449
887.588413 96.486
900.481245 96.530
913.561355 96.580
926.831463 96.638
940.294327 96.703
953.952750 96.775
967.809570 96.854
981.867670 96.940
996.129973 97.032
1010.599447 97.132
1025.279099 97.237
1040.171984 97.346
1055.281198 97.460
1070.609883 97.577
1086.161229 97.695
1101.938468 97.815
1117.944883 97.934
1134.183801 98.052
1150.658602 98.167
1167.372710 98.278
1184.329602 98.386
1201.532804 98.488
1218.985895 98.585
1236.692504 98.675
1254.656314 98.758
1272.881060 98.834
1291.370534 98.902
1310.128579 98.966
1329.159099 99.023
1348.466049 99.075
1368.053447 99.121
1387.925364 99.162
1408.085935 99.199
1428.539353 99.233
1449.289870 99.266
1470.341803 99.297
1491.699529 99.326
1513.367491 99.357
1535.350196 99.388
1557.652214 99.422
1580.278184 99.458
1603.232812 99.497
1626.520872 99.539
1650.147207 99.586
1674.116731 99.637
1698.434429 99.693
1723.105358 99.754
1748.134649 99.821
1773.527508 99.893
1799.289215 99.972
1825.425129 100.058
1851.940686 100.150
1878.841399 100.251
1906.132863 100.359
1933.820755 100.476
1961.910832 100.604
1990.408937 100.741
2019.320997 100.890
2048.653024 101.051
2078.411119 101.224
2108.601471 101.412
2139.230358 101.613
2170.304151 101.833
2201.829313 102.066
2233.812399 102.320
2266.260061 102.592
2299.179048 102.884
2332.576206 103.198
2366.458481 103.536
2400.832919 103.894
2435.706669 104.279
2471.086985 104.685
2506.981224 105.114
2543.396851 105.561
2580.341441 106.023
2617.822676 106.491
2655.848352 106.951
2694.426377 107.391
2733.564774 107.778
2773.271684 108.100
2813.555364 108.319
2854.424192 108.435
2895.886667 108.403
2937.951414 108.217
2980.627180 107.907
3023.922841 107.492
3067.847402 106.990
3112.409996 106.422
3157.619894 105.821
3203.486496 105.208
3250.019342 104.597
3297.228109 104.002
3345.122616 103.429
3393.712825 102.881
3443.008839 102.360
3493.020912 101.866
3543.759444 101.401
3595.234989 100.963
3647.458251 100.553
3700.440093 100.171
3754.191532 99.816
3808.723747 99.486
3864.048081 99.176
3920.176038 98.895
3977.119293 98.629
4034.889688 98.389
4093.499237 98.169
4152.960131 97.969
4213.284735 97.788
4274.485595 97.625
4336.575440 97.481
4399.567183 97.356
4463.473924 97.249
4528.308954 97.160
4594.085758 97.092
4660.818016 97.042
4728.519605 97.015
4797.204606 97.008
4866.887304 97.023
4937.582192 97.064
5009.303971 97.132
5082.067559 97.224
5155.888088 97.348
5230.780910 97.503
5306.761603 97.687
5383.845967 97.903
5462.050035 98.148
5541.390071 98.412
5621.882575 98.682
5703.544288 98.945
5786.392194 99.159
5870.443523 99.281
5955.715755 99.269
6042.226625 99.098
6129.994125 98.719
6219.036508 98.136
6309.372294 97.348
6401.020268 96.427
6493.999493 95.404
6588.329304 94.332
6684.029322 93.250
6781.119447 92.182
6879.619874 91.142
6979.551087 90.137
7080.933870 89.183
7183.789308 88.283
7288.138791 87.429
7394.004023 86.604
7501.407020 85.799
7610.370119 85.022
7720.915982 84.282
7833.067600 83.577
7946.848298 82.908
8062.281738 82.276
8179.391929 81.679
8298.203226 81.113
8418.740338 80.579
8541.028336 80.082
8665.092650 79.623
8790.959084 79.194
8918.653815 78.800
9048.203399 78.428
9179.634780 78.085
9312.975293 77.774
9448.252668 77.501
9585.495040 77.273
9724.730952 77.095
9865.989362 76.963
10009.299647 76.878
10154.691613 76.836
10302.195497 76.843
10451.841976 76.912
10603.662174 77.044
10757.687664 77.257
10913.950481 77.559
11072.483123 77.958
11233.318560 78.478
11396.490243 79.115
11562.032107 79.956
11729.978580 80.943
11900.364591 82.286
12073.225577 83.777
12248.597487 85.531
12426.516795 87.253
12607.020503 88.260
12790.146152 88.227
12975.931827 86.677
13164.416166 84.998
13355.638371 82.939
13549.638209 81.101
13746.456029 79.575
13946.132763 78.361
14148.709939 77.474
14354.229688 76.748
14562.734753 76.308
14774.268497 76.074
14988.874914 76.088
15206.598638 76.333
15427.484948 76.663
15651.579784 76.822
15878.929752 76.460
16109.582134 75.284
16343.584901 73.288
16580.986719 70.847
16821.836962 68.402
17066.185721 65.858
17314.083813 62.721
17565.582796 59.363
17820.734975 57.462
18079.593414 58.257
18342.211951 60.976
18608.645202 63.818
18878.948580 65.835
19153.178301 66.726
19431.391396 66.831
19713.645729 66.541
20000.000000 66.128
