* Measurement data measured by REW V5.31.3
* Source: Headset (2- USB-C to 3.5mm Headphone Jack Adapter), MICROPHONE (Master Volume), L, volume: 0.630
* Format: 64k Log Swept Sine, 1 sweep at -30.0 dBFS with no timing reference
* REW Settings:
*  C-weighting compensation: Off
*  Target level: 75.0 dB
* Note: ; 
* Measurement: 7
* Smoothing: 1/24 octave
* Frequency Step: 1/48 octave
* Start Frequency: 1.000 Hz
*
* Freq(Hz) SPL(dB)

20.000000 90.731
20.290514 90.854
20.585247 90.976
20.884262 91.098
21.187621 91.217
21.495385 91.332
21.807621 91.445
22.124391 91.555
22.445763 91.666
22.771804 91.776
23.102580 91.887
23.438160 92.000
23.778616 92.116
24.124017 92.234
24.474435 92.353
24.829943 92.472
25.190615 92.589
25.556526 92.705
25.927752 92.819
26.304370 92.934
26.686459 93.050
27.074098 93.166
27.467368 93.280
27.866351 93.391
28.271129 93.499
28.681786 93.604
29.098409 93.705
29.521083 93.803
29.949897 93.898
30.384940 93.992
30.826303 94.087
31.274076 94.180
31.728353 94.271
32.189229 94.359
32.656800 94.448
33.131163 94.538
33.612416 94.629
34.100659 94.719
34.595995 94.807
35.098525 94.895
35.608355 94.984
36.125591 95.071
36.650340 95.156
37.182712 95.240
37.722816 95.324
38.270766 95.409
38.826675 95.490
39.390660 95.568
39.962836 95.647
40.543324 95.727
41.132243 95.808
41.729717 95.890
42.335870 95.974
42.950828 96.060
43.574718 96.145
44.207671 96.230
44.849818 96.314
45.501292 96.398
46.162230 96.477
46.832768 96.553
47.513046 96.627
48.203206 96.699
48.903391 96.764
49.613746 96.827
50.334420 96.893
51.065562 96.962
51.807325 97.035
52.559862 97.107
53.323330 97.178
54.097888 97.250
54.883697 97.320
55.680920 97.386
56.489724 97.448
57.310276 97.508
58.142747 97.568
58.987311 97.627
59.844142 97.688
60.713419 97.752
61.595324 97.820
62.490038 97.890
63.397749 97.960
64.318645 98.028
65.252917 98.091
66.200761 98.148
67.162372 98.200
68.137952 98.251
69.127703 98.301
70.131830 98.356
71.150543 98.416
72.184054 98.479
73.232577 98.540
74.296331 98.596
75.375536 98.645
76.470417 98.689
77.581203 98.730
78.708123 98.772
79.851413 98.819
81.011310 98.871
82.188055 98.922
83.381893 98.969
84.593072 99.010
85.821845 99.045
87.068466 99.079
88.333195 99.117
89.616296 99.164
90.918034 99.214
92.238681 99.263
93.578512 99.305
94.937804 99.338
96.316841 99.369
97.715909 99.405
99.135300 99.450
100.575309 99.499
102.036234 99.546
103.518381 99.585
105.022056 99.619
106.547574 99.656
108.095251 99.699
109.665409 99.748
111.258374 99.792
112.874479 99.826
114.514058 99.855
116.177454 99.889
117.865011 99.930
119.577082 99.974
121.314021 100.013
123.076191 100.040
124.863957 100.065
126.677692 100.096
128.517773 100.132
130.384582 100.162
132.278507 100.188
134.199944 100.210
136.149290 100.240
138.126952 100.275
140.133341 100.300
142.168875 100.315
144.233975 100.334
146.329073 100.363
148.454604 100.390
150.611009 100.411
152.798738 100.425
155.018244 100.447
157.269991 100.470
159.554446 100.483
161.872084 100.495
164.223387 100.515
166.608845 100.534
169.028953 100.543
171.484215 100.550
173.975141 100.561
176.502250 100.572
179.066067 100.577
181.667125 100.582
184.305965 100.588
186.983136 100.588
189.699194 100.584
192.454706 100.588
195.250243 100.589
198.086387 100.583
200.963728 100.578
203.882864 100.576
206.844403 100.571
209.848961 100.568
212.897161 100.566
215.989639 100.559
219.127037 100.555
222.310008 100.555
225.539214 100.553
228.815326 100.552
232.139026 100.551
235.511005 100.550
238.931965 100.553
242.402616 100.554
245.923681 100.553
249.495892 100.556
253.119991 100.556
256.796733 100.556
260.526882 100.552
264.311215 100.549
268.150517 100.545
272.045588 100.537
275.997237 100.528
280.006287 100.516
284.073571 100.502
288.199935 100.484
292.386238 100.465
296.633349 100.444
300.942152 100.420
305.313544 100.394
309.748434 100.367
314.247743 100.338
318.812408 100.307
323.443377 100.276
328.141615 100.244
332.908098 100.211
337.743817 100.178
342.649778 100.144
347.627002 100.110
352.676523 100.076
357.799393 100.041
362.996675 100.007
368.269452 99.973
373.618819 99.939
379.045889 99.904
384.551792 99.870
390.137671 99.836
395.804689 99.801
401.554025 99.767
407.386873 99.731
413.304448 99.695
419.307980 99.658
425.398716 99.621
431.577926 99.583
437.846892 99.543
444.206919 99.503
450.659331 99.461
457.205468 99.418
463.846692 99.372
470.584384 99.325
477.419946 99.276
484.354799 99.226
491.390386 99.174
498.528170 99.121
505.769634 99.066
513.116286 99.010
520.569654 98.954
528.131286 98.898
535.802756 98.841
543.585660 98.784
551.481616 98.727
559.492266 98.670
567.619276 98.614
575.864337 98.558
584.229163 98.504
592.715493 98.450
601.325094 98.396
610.059754 98.342
618.921292 98.290
627.911550 98.237
637.032397 98.185
646.285731 98.134
655.673476 98.084
665.197585 98.034
674.860038 97.985
684.662844 97.937
694.608043 97.890
704.697703 97.843
714.933922 97.798
725.318829 97.755
735.854584 97.714
746.543379 97.674
757.387435 97.638
768.389009 97.604
779.550388 97.573
790.873894 97.545
802.361881 97.521
814.016740 97.501
825.840893 97.487
837.836800 97.477
850.006956 97.472
862.353892 97.473
874.880176 97.481
887.588413 97.496
900.481245 97.517
913.561355 97.545
926.831463 97.581
940.294327 97.623
953.952750 97.673
967.809570 97.729
981.867670 97.793
996.129973 97.863
1010.599447 97.940
1025.279099 98.023
1040.171984 98.111
1055.281198 98.202
1070.609883 98.298
1086.161229 98.395
1101.938468 98.495
1117.944883 98.595
1134.183801 98.694
1150.658602 98.792
1167.372710 98.886
1184.329602 98.978
1201.532804 99.066
1218.985895 99.150
1236.692504 99.227
1254.656314 99.298
1272.881060 99.364
1291.370534 99.421
1310.128579 99.476
1329.159099 99.524
1348.466049 99.566
1368.053447 99.604
1387.925364 99.636
1408.085935 99.663
1428.539353 99.688
1449.289870 99.709
1470.341803 99.728
1491.699529 99.745
1513.367491 99.761
1535.350196 99.776
1557.652214 99.792
1580.278184 99.809
1603.232812 99.828
1626.520872 99.848
1650.147207 99.872
1674.116731 99.899
1698.434429 99.931
1723.105358 99.968
1748.134649 100.011
1773.527508 100.060
1799.289215 100.116
1825.425129 100.181
1851.940686 100.254
1878.841399 100.336
1906.132863 100.428
1933.820755 100.531
1961.910832 100.645
1990.408937 100.770
2019.320997 100.909
2048.653024 101.060
2078.411119 101.225
2108.601471 101.404
2139.230358 101.597
2170.304151 101.811
2201.829313 102.038
2233.812399 102.286
2266.260061 102.552
2299.179048 102.839
2332.576206 103.148
2366.458481 103.482
2400.832919 103.835
2435.706669 104.215
2471.086985 104.616
2506.981224 105.041
2543.396851 105.484
2580.341441 105.941
2617.822676 106.404
2655.848352 106.859
2694.426377 107.293
2733.564774 107.675
2773.271684 107.992
2813.555364 108.206
2854.424192 108.317
2895.886667 108.280
2937.951414 108.091
2980.627180 107.777
3023.922841 107.360
3067.847402 106.856
3112.409996 106.288
3157.619894 105.688
3203.486496 105.077
3250.019342 104.469
3297.228109 103.878
3345.122616 103.308
3393.712825 102.764
3443.008839 102.247
3493.020912 101.758
3543.759444 101.297
3595.234989 100.863
3647.458251 100.456
3700.440093 100.076
3754.191532 99.723
3808.723747 99.394
3864.048081 99.084
3920.176038 98.804
3977.119293 98.537
4034.889688 98.296
4093.499237 98.075
4152.960131 97.874
4213.284735 97.692
4274.485595 97.527
4336.575440 97.382
4399.567183 97.256
4463.473924 97.146
4528.308954 97.056
4594.085758 96.986
4660.818016 96.933
4728.519605 96.903
4797.204606 96.895
4866.887304 96.906
4937.582192 96.945
5009.303971 97.011
5082.067559 97.101
5155.888088 97.224
5230.780910 97.378
5306.761603 97.562
5383.845967 97.779
5462.050035 98.025
5541.390071 98.292
5621.882575 98.564
5703.544288 98.830
5786.392194 99.048
5870.443523 99.174
5955.715755 99.167
6042.226625 98.999
6129.994125 98.625
6219.036508 98.045
6309.372294 97.261
6401.020268 96.344
6493.999493 95.323
6588.329304 94.255
6684.029322 93.175
6781.119447 92.110
6879.619874 91.072
6979.551087 90.069
7080.933870 89.116
7183.789308 88.218
7288.138791 87.365
7394.004023 86.540
7501.407020 85.735
7610.370119 84.958
7720.915982 84.217
7833.067600 83.510
7946.848298 82.838
8062.281738 82.203
8179.391929 81.603
8298.203226 81.033
8418.740338 80.496
8541.028336 79.995
8665.092650 79.532
8790.959084 79.101
8918.653815 78.704
9048.203399 78.329
9179.634780 77.985
9312.975293 77.672
9448.252668 77.397
9585.495040 77.168
9724.730952 76.989
9865.989362 76.856
10009.299647 76.770
10154.691613 76.727
10302.195497 76.733
10451.841976 76.801
10603.662174 76.932
10757.687664 77.144
10913.950481 77.445
11072.483123 77.844
11233.318560 78.364
11396.490243 79.002
11562.032107 79.845
11729.978580 80.834
11900.364591 82.179
12073.225577 83.673
12248.597487 85.431
12426.516795 87.156
12607.020503 88.166
12790.146152 88.137
12975.931827 86.589
13164.416166 84.914
13355.638371 82.856
13549.638209 81.019
13746.456029 79.494
13946.132763 78.279
14148.709939 77.392
14354.229688 76.663
14562.734753 76.221
14774.268497 75.984
14988.874914 75.994
15206.598638 76.235
15427.484948 76.560
15651.579784 76.715
15878.929752 76.348
16109.582134 75.168
16343.584901 73.168
16580.986719 70.723
16821.836962 68.274
17066.185721 65.728
17314.083813 62.589
17565.582796 59.229
17820.734975 57.327
18079.593414 58.122
18342.211951 60.841
18608.645202 63.684
18878.948580 65.702
19153.178301 66.594
19431.391396 66.701
19713.645729 66.412
20000.000000 66.000
