* Measurement data measured by REW V5.31.3
* Source: Headset (2- USB-C to 3.5mm Headphone Jack Adapter), MICROPHONE (Master Volume), L, volume: 0.630
* Format: 64k Log Swept Sine, 1 sweep at -30.0 dBFS with no timing reference
* REW Settings:
*  C-weighting compensation: Off
*  Target level: 75.0 dB
* Note: ; 
* Measurement: 18
* Smoothing: 1/24 octave
* Frequency Step: 1/48 octave
* Start Frequency: 1.000 Hz
*
* Freq(Hz) SPL(dB)

20.000000 91.167
20.290514 91.290
20.585247 91.414
20.884262 91.538
21.187621 91.661
21.495385 91.780
21.807621 91.898
22.124391 92.014
22.445763 92.129
22.771804 92.243
23.102580 92.358
23.438160 92.473
23.778616 92.590
24.124017 92.707
24.474435 92.824
24.829943 92.939
25.190615 93.051
25.556526 93.160
25.927752 93.268
26.304370 93.375
26.686459 93.482
27.074098 93.588
27.467368 93.693
27.866351 93.796
28.271129 93.896
28.681786 93.993
29.098409 94.088
29.521083 94.179
29.949897 94.270
30.384940 94.361
30.826303 94.453
31.274076 94.544
31.728353 94.633
32.189229 94.721
32.656800 94.810
33.131163 94.900
33.612416 94.991
34.100659 95.080
34.595995 95.168
35.098525 95.254
35.608355 95.341
36.125591 95.426
36.650340 95.506
37.182712 95.585
37.722816 95.663
38.270766 95.741
38.826675 95.813
39.390660 95.881
39.962836 95.949
40.543324 96.017
41.132243 96.085
41.729717 96.153
42.335870 96.222
42.950828 96.292
43.574718 96.362
44.207671 96.430
44.849818 96.499
45.501292 96.568
46.162230 96.631
46.832768 96.693
47.513046 96.754
48.203206 96.814
48.903391 96.869
49.613746 96.923
50.334420 96.980
51.065562 97.042
51.807325 97.108
52.559862 97.174
53.323330 97.240
54.097888 97.306
54.883697 97.370
55.680920 97.430
56.489724 97.484
57.310276 97.536
58.142747 97.585
58.987311 97.633
59.844142 97.681
60.713419 97.731
61.595324 97.782
62.490038 97.835
63.397749 97.887
64.318645 97.936
65.252917 97.979
66.200761 98.015
67.162372 98.046
68.137952 98.075
69.127703 98.105
70.131830 98.139
71.150543 98.178
72.184054 98.220
73.232577 98.262
74.296331 98.298
75.375536 98.328
76.470417 98.352
77.581203 98.375
78.708123 98.399
79.851413 98.428
81.011310 98.461
82.188055 98.494
83.381893 98.523
84.593072 98.547
85.821845 98.565
87.068466 98.582
88.333195 98.604
89.616296 98.635
90.918034 98.671
92.238681 98.705
93.578512 98.732
94.937804 98.751
96.316841 98.767
97.715909 98.789
99.135300 98.818
100.575309 98.852
102.036234 98.882
103.518381 98.905
105.022056 98.921
106.547574 98.939
108.095251 98.963
109.665409 98.992
111.258374 99.015
112.874479 99.028
114.514058 99.035
116.177454 99.048
117.865011 99.066
119.577082 99.089
121.314021 99.107
123.076191 99.113
124.863957 99.117
126.677692 99.129
128.517773 99.145
130.384582 99.158
132.278507 99.167
134.199944 99.172
136.149290 99.186
138.126952 99.206
140.133341 99.216
142.168875 99.217
144.233975 99.223
146.329073 99.237
148.454604 99.251
150.611009 99.257
152.798738 99.257
155.018244 99.264
157.269991 99.272
159.554446 99.270
161.872084 99.267
164.223387 99.273
166.608845 99.278
169.028953 99.274
171.484215 99.268
173.975141 99.269
176.502250 99.270
179.066067 99.267
181.667125 99.266
184.305965 99.268
186.983136 99.264
189.699194 99.260
192.454706 99.263
195.250243 99.266
198.086387 99.262
200.963728 99.261
203.882864 99.263
206.844403 99.262
209.848961 99.264
212.897161 99.266
215.989639 99.263
219.127037 99.262
222.310008 99.265
225.539214 99.266
228.815326 99.266
232.139026 99.265
235.511005 99.264
238.931965 99.267
242.402616 99.266
245.923681 99.264
249.495892 99.264
253.119991 99.262
256.796733 99.259
260.526882 99.253
264.311215 99.248
268.150517 99.243
272.045588 99.234
275.997237 99.226
280.006287 99.217
284.073571 99.207
288.199935 99.194
292.386238 99.183
296.633349 99.171
300.942152 99.159
305.313544 99.145
309.748434 99.133
314.247743 99.121
318.812408 99.107
323.443377 99.094
328.141615 99.082
332.908098 99.068
337.743817 99.055
342.649778 99.042
347.627002 99.027
352.676523 99.013
357.799393 98.998
362.996675 98.982
368.269452 98.967
373.618819 98.950
379.045889 98.932
384.551792 98.913
390.137671 98.894
395.804689 98.874
401.554025 98.853
407.386873 98.830
413.304448 98.807
419.307980 98.782
425.398716 98.757
431.577926 98.731
437.846892 98.703
444.206919 98.675
450.659331 98.645
457.205468 98.614
463.846692 98.582
470.584384 98.549
477.419946 98.516
484.354799 98.482
491.390386 98.448
498.528170 98.413
505.769634 98.378
513.116286 98.344
520.569654 98.310
528.131286 98.277
535.802756 98.244
543.585660 98.211
551.481616 98.179
559.492266 98.148
567.619276 98.117
575.864337 98.086
584.229163 98.056
592.715493 98.025
601.325094 97.994
610.059754 97.963
618.921292 97.931
627.911550 97.899
637.032397 97.866
646.285731 97.834
655.673476 97.802
665.197585 97.769
674.860038 97.736
684.662844 97.704
694.608043 97.672
704.697703 97.641
714.933922 97.610
725.318829 97.582
735.854584 97.555
746.543379 97.530
757.387435 97.508
768.389009 97.487
779.550388 97.470
790.873894 97.455
802.361881 97.444
814.016740 97.436
825.840893 97.434
837.836800 97.435
850.006956 97.441
862.353892 97.453
874.880176 97.471
887.588413 97.496
900.481245 97.527
913.561355 97.566
926.831463 97.612
940.294327 97.665
953.952750 97.726
967.809570 97.794
981.867670 97.870
996.129973 97.953
1010.599447 98.043
1025.279099 98.139
1040.171984 98.240
1055.281198 98.345
1070.609883 98.453
1086.161229 98.563
1101.938468 98.675
1117.944883 98.786
1134.183801 98.895
1150.658602 99.002
1167.372710 99.106
1184.329602 99.205
1201.532804 99.300
1218.985895 99.390
1236.692504 99.473
1254.656314 99.550
1272.881060 99.621
1291.370534 99.685
1310.128579 99.745
1329.159099 99.800
1348.466049 99.849
1368.053447 99.895
1387.925364 99.936
1408.085935 99.974
1428.539353 100.010
1449.289870 100.044
1470.341803 100.076
1491.699529 100.107
1513.367491 100.138
1535.350196 100.170
1557.652214 100.202
1580.278184 100.236
1603.232812 100.271
1626.520872 100.309
1650.147207 100.349
1674.116731 100.392
1698.434429 100.439
1723.105358 100.490
1748.134649 100.545
1773.527508 100.606
1799.289215 100.673
1825.425129 100.746
1851.940686 100.826
1878.841399 100.913
1906.132863 101.009
1933.820755 101.115
1961.910832 101.230
1990.408937 101.356
2019.320997 101.494
2048.653024 101.643
2078.411119 101.806
2108.601471 101.983
2139.230358 102.173
2170.304151 102.383
2201.829313 102.606
2233.812399 102.850
2266.260061 103.111
2299.179048 103.394
2332.576206 103.699
2366.458481 104.027
2400.832919 104.376
2435.706669 104.752
2471.086985 105.149
2506.981224 105.570
2543.396851 106.009
2580.341441 106.463
2617.822676 106.924
2655.848352 107.378
2694.426377 107.811
2733.564774 108.193
2773.271684 108.510
2813.555364 108.726
2854.424192 108.838
2895.886667 108.803
2937.951414 108.615
2980.627180 108.303
3023.922841 107.888
3067.847402 107.386
3112.409996 106.818
3157.619894 106.219
3203.486496 105.608
3250.019342 105.000
3297.228109 104.409
3345.122616 103.840
3393.712825 103.296
3443.008839 102.780
3493.020912 102.292
3543.759444 101.832
3595.234989 101.401
3647.458251 100.997
3700.440093 100.620
3754.191532 100.270
3808.723747 99.945
3864.048081 99.639
3920.176038 99.362
3977.119293 99.099
4034.889688 98.861
4093.499237 98.643
4152.960131 98.444
4213.284735 98.263
4274.485595 98.099
4336.575440 97.955
4399.567183 97.829
4463.473924 97.719
4528.308954 97.628
4594.085758 97.558
4660.818016 97.506
4728.519605 97.477
4797.204606 97.469
4866.887304 97.482
4937.582192 97.523
5009.303971 97.591
5082.067559 97.685
5155.888088 97.810
5230.780910 97.967
5306.761603 98.154
5383.845967 98.373
5462.050035 98.621
5541.390071 98.889
5621.882575 99.163
5703.544288 99.428
5786.392194 99.645
5870.443523 99.769
5955.715755 99.759
6042.226625 99.588
6129.994125 99.210
6219.036508 98.627
6309.372294 97.839
6401.020268 96.918
6493.999493 95.894
6588.329304 94.823
6684.029322 93.741
6781.119447 92.675
6879.619874 91.636
6979.551087 90.634
7080.933870 89.683
7183.789308 88.787
7288.138791 87.937
7394.004023 87.116
7501.407020 86.315
7610.370119 85.543
7720.915982 84.806
7833.067600 84.103
7946.848298 83.436
8062.281738 82.804
8179.391929 82.207
8298.203226 81.640
8418.740338 81.104
8541.028336 80.605
8665.092650 80.142
8790.959084 79.710
8918.653815 79.313
9048.203399 78.937
9179.634780 78.592
9312.975293 78.278
9448.252668 78.003
9585.495040 77.775
9724.730952 77.597
9865.989362 77.466
10009.299647 77.383
10154.691613 77.345
10302.195497 77.357
10451.841976 77.431
10603.662174 77.569
10757.687664 77.789
10913.950481 78.097
11072.483123 78.503
11233.318560 79.029
11396.490243 79.671
11562.032107 80.517
11729.978580 81.507
11900.364591 82.851
12073.225577 84.341
12248.597487 86.094
12426.516795 87.812
12607.020503 88.813
12790.146152 88.773
12975.931827 87.214
13164.416166 85.526
13355.638371 83.455
13549.638209 81.605
13746.456029 80.067
13946.132763 78.839
14148.709939 77.940
14354.229688 77.200
14562.734753 76.747
14774.268497 76.500
14988.874914 76.501
15206.598638 76.734
15427.484948 77.051
15651.579784 77.199
15878.929752 76.825
16109.582134 75.638
16343.584901 73.632
16580.986719 71.182
16821.836962 68.727
17066.185721 66.176
17314.083813 63.031
17565.582796 59.667
17820.734975 57.760
18079.593414 58.551
18342.211951 61.266
18608.645202 64.105
18878.948580 66.120
19153.178301 67.009
19431.391396 67.114
19713.645729 66.823
20000.000000 66.409
