* Measurement data measured by REW V5.31.3
* Source: Headset (2- USB-C to 3.5mm Headphone Jack Adapter), MICROPHONE (Master Volume), L, volume: 0.630
* Format: 64k Log Swept Sine, 1 sweep at -30.0 dBFS with no timing reference
* REW Settings:
*  C-weighting compensation: Off
*  Target level: 75.0 dB
* Note: ; 
* Measurement: 15
* Smoothing: 1/24 octave
* Frequency Step: 1/48 octave
* Start Frequency: 1.000 Hz
*
* Freq(Hz) SPL(dB)

20.000000 92.263
20.290514 92.396
20.585247 92.529
20.884262 92.661
21.187621 92.790
21.495385 92.915
21.807621 93.038
22.124391 93.158
22.445763 93.277
22.771804 93.396
23.102580 93.514
23.438160 93.633
23.778616 93.753
24.124017 93.873
24.474435 93.994
24.829943 94.113
25.190615 94.229
25.556526 94.342
25.927752 94.454
26.304370 94.566
26.686459 94.678
27.074098 94.791
27.467368 94.902
27.866351 95.011
28.271129 95.119
28.681786 95.224
29.098409 95.327
29.521083 95.428
29.949897 95.528
30.384940 95.629
30.826303 95.731
31.274076 95.832
31.728353 95.931
32.189229 96.028
32.656800 96.125
33.131163 96.223
33.612416 96.320
34.100659 96.415
34.595995 96.506
35.098525 96.595
35.608355 96.684
36.125591 96.768
36.650340 96.848
37.182712 96.926
37.722816 97.002
38.270766 97.076
38.826675 97.146
39.390660 97.211
39.962836 97.277
40.543324 97.343
41.132243 97.409
41.729717 97.475
42.335870 97.544
42.950828 97.614
43.574718 97.683
44.207671 97.752
44.849818 97.821
45.501292 97.889
46.162230 97.952
46.832768 98.012
47.513046 98.071
48.203206 98.128
48.903391 98.179
49.613746 98.227
50.334420 98.278
51.065562 98.333
51.807325 98.390
52.559862 98.448
53.323330 98.504
54.097888 98.560
54.883697 98.614
55.680920 98.663
56.489724 98.708
57.310276 98.750
58.142747 98.790
58.987311 98.828
59.844142 98.869
60.713419 98.911
61.595324 98.956
62.490038 99.003
63.397749 99.050
64.318645 99.093
65.252917 99.132
66.200761 99.165
67.162372 99.192
68.137952 99.217
69.127703 99.242
70.131830 99.272
71.150543 99.306
72.184054 99.342
73.232577 99.378
74.296331 99.407
75.375536 99.430
76.470417 99.447
77.581203 99.462
78.708123 99.478
79.851413 99.499
81.011310 99.524
82.188055 99.549
83.381893 99.570
84.593072 99.586
85.821845 99.595
87.068466 99.604
88.333195 99.617
89.616296 99.638
90.918034 99.663
92.238681 99.686
93.578512 99.700
94.937804 99.705
96.316841 99.706
97.715909 99.712
99.135300 99.724
100.575309 99.740
102.036234 99.751
103.518381 99.754
105.022056 99.750
106.547574 99.748
108.095251 99.752
109.665409 99.761
111.258374 99.765
112.874479 99.759
114.514058 99.749
116.177454 99.744
117.865011 99.747
119.577082 99.755
121.314021 99.759
123.076191 99.753
124.863957 99.745
126.677692 99.747
128.517773 99.754
130.384582 99.757
132.278507 99.758
134.199944 99.756
136.149290 99.763
138.126952 99.776
140.133341 99.779
142.168875 99.774
144.233975 99.774
146.329073 99.783
148.454604 99.791
150.611009 99.792
152.798738 99.787
155.018244 99.789
157.269991 99.792
159.554446 99.786
161.872084 99.779
164.223387 99.780
166.608845 99.780
169.028953 99.772
171.484215 99.761
173.975141 99.755
176.502250 99.750
179.066067 99.741
181.667125 99.733
184.305965 99.727
186.983136 99.715
189.699194 99.702
192.454706 99.696
195.250243 99.690
198.086387 99.676
200.963728 99.665
203.882864 99.656
206.844403 99.645
209.848961 99.635
212.897161 99.627
215.989639 99.613
219.127037 99.600
222.310008 99.592
225.539214 99.581
228.815326 99.569
232.139026 99.556
235.511005 99.543
238.931965 99.534
242.402616 99.521
245.923681 99.507
249.495892 99.496
253.119991 99.484
256.796733 99.472
260.526882 99.458
264.311215 99.445
268.150517 99.434
272.045588 99.420
275.997237 99.407
280.006287 99.394
284.073571 99.381
288.199935 99.366
292.386238 99.353
296.633349 99.339
300.942152 99.325
305.313544 99.309
309.748434 99.294
314.247743 99.278
318.812408 99.260
323.443377 99.242
328.141615 99.223
332.908098 99.203
337.743817 99.181
342.649778 99.159
347.627002 99.134
352.676523 99.108
357.799393 99.082
362.996675 99.054
368.269452 99.026
373.618819 98.997
379.045889 98.967
384.551792 98.936
390.137671 98.905
395.804689 98.874
401.554025 98.842
407.386873 98.809
413.304448 98.777
419.307980 98.743
425.398716 98.711
431.577926 98.677
437.846892 98.643
444.206919 98.609
450.659331 98.574
457.205468 98.538
463.846692 98.501
470.584384 98.465
477.419946 98.428
484.354799 98.392
491.390386 98.355
498.528170 98.319
505.769634 98.282
513.116286 98.246
520.569654 98.211
528.131286 98.178
535.802756 98.144
543.585660 98.112
551.481616 98.080
559.492266 98.050
567.619276 98.019
575.864337 97.989
584.229163 97.960
592.715493 97.930
601.325094 97.900
610.059754 97.869
618.921292 97.838
627.911550 97.807
637.032397 97.775
646.285731 97.743
655.673476 97.710
665.197585 97.678
674.860038 97.646
684.662844 97.614
694.608043 97.583
704.697703 97.552
714.933922 97.523
725.318829 97.497
735.854584 97.472
746.543379 97.450
757.387435 97.430
768.389009 97.414
779.550388 97.400
790.873894 97.390
802.361881 97.383
814.016740 97.380
825.840893 97.382
837.836800 97.388
850.006956 97.399
862.353892 97.414
874.880176 97.435
887.588413 97.462
900.481245 97.494
913.561355 97.532
926.831463 97.576
940.294327 97.627
953.952750 97.683
967.809570 97.746
981.867670 97.816
996.129973 97.891
1010.599447 97.974
1025.279099 98.062
1040.171984 98.155
1055.281198 98.253
1070.609883 98.355
1086.161229 98.460
1101.938468 98.568
1117.944883 98.677
1134.183801 98.786
1150.658602 98.895
1167.372710 99.002
1184.329602 99.105
1201.532804 99.205
1218.985895 99.301
1236.692504 99.390
1254.656314 99.473
1272.881060 99.549
1291.370534 99.617
1310.128579 99.681
1329.159099 99.738
1348.466049 99.788
1368.053447 99.834
1387.925364 99.874
1408.085935 99.909
1428.539353 99.941
1449.289870 99.971
1470.341803 99.999
1491.699529 100.026
1513.367491 100.052
1535.350196 100.080
1557.652214 100.109
1580.278184 100.140
1603.232812 100.173
1626.520872 100.210
1650.147207 100.249
1674.116731 100.294
1698.434429 100.343
1723.105358 100.396
1748.134649 100.456
1773.527508 100.521
1799.289215 100.592
1825.425129 100.670
1851.940686 100.756
1878.841399 100.849
1906.132863 100.951
1933.820755 101.063
1961.910832 101.184
1990.408937 101.316
2019.320997 101.460
2048.653024 101.615
2078.411119 101.784
2108.601471 101.966
2139.230358 102.163
2170.304151 102.378
2201.829313 102.607
2233.812399 102.857
2266.260061 103.124
2299.179048 103.413
2332.576206 103.724
2366.458481 104.058
2400.832919 104.413
2435.706669 104.795
2471.086985 105.197
2506.981224 105.624
2543.396851 106.068
2580.341441 106.527
2617.822676 106.993
2655.848352 107.451
2694.426377 107.888
2733.564774 108.273
2773.271684 108.593
2813.555364 108.811
2854.424192 108.926
2895.886667 108.892
2937.951414 108.706
2980.627180 108.395
3023.922841 107.980
3067.847402 107.478
3112.409996 106.910
3157.619894 106.309
3203.486496 105.697
3250.019342 105.086
3297.228109 104.492
3345.122616 103.918
3393.712825 103.370
3443.008839 102.849
3493.020912 102.355
3543.759444 101.889
3595.234989 101.451
3647.458251 101.041
3700.440093 100.658
3754.191532 100.303
3808.723747 99.972
3864.048081 99.661
3920.176038 99.380
3977.119293 99.112
4034.889688 98.871
4093.499237 98.649
4152.960131 98.445
4213.284735 98.261
4274.485595 98.092
4336.575440 97.942
4399.567183 97.811
4463.473924 97.696
4528.308954 97.599
4594.085758 97.523
4660.818016 97.465
4728.519605 97.429
4797.204606 97.415
4866.887304 97.424
4937.582192 97.460
5009.303971 97.524
5082.067559 97.615
5155.888088 97.739
5230.780910 97.896
5306.761603 98.084
5383.845967 98.305
5462.050035 98.557
5541.390071 98.829
5621.882575 99.109
5703.544288 99.381
5786.392194 99.605
5870.443523 99.737
5955.715755 99.736
6042.226625 99.574
6129.994125 99.206
6219.036508 98.632
6309.372294 97.853
6401.020268 96.940
6493.999493 95.925
6588.329304 94.862
6684.029322 93.788
6781.119447 92.728
6879.619874 91.696
6979.551087 90.700
7080.933870 89.754
7183.789308 88.864
7288.138791 88.018
7394.004023 87.202
7501.407020 86.406
7610.370119 85.639
7720.915982 84.909
7833.067600 84.213
7946.848298 83.552
8062.281738 82.929
8179.391929 82.340
8298.203226 81.782
8418.740338 81.257
8541.028336 80.769
8665.092650 80.318
8790.959084 79.898
8918.653815 79.513
9048.203399 79.151
9179.634780 78.820
9312.975293 78.520
9448.252668 78.260
9585.495040 78.047
9724.730952 77.884
9865.989362 77.769
10009.299647 77.702
10154.691613 77.680
10302.195497 77.707
10451.841976 77.798
10603.662174 77.952
10757.687664 78.188
10913.950481 78.514
11072.483123 78.936
11233.318560 79.479
11396.490243 80.140
11562.032107 81.003
11729.978580 82.011
11900.364591 83.375
12073.225577 84.885
12248.597487 86.657
12426.516795 88.395
12607.020503 89.416
12790.146152 89.397
12975.931827 87.859
13164.416166 86.192
13355.638371 84.143
13549.638209 82.314
13746.456029 80.798
13946.132763 79.592
14148.709939 78.714
14354.229688 77.996
14562.734753 77.565
14774.268497 77.339
14988.874914 77.362
15206.598638 77.615
15427.484948 77.953
15651.579784 78.120
15878.929752 77.765
16109.582134 76.596
16343.584901 74.607
16580.986719 72.172
16821.836962 69.732
17066.185721 67.192
17314.083813 64.059
17565.582796 60.704
17820.734975 58.805
18079.593414 59.601
18342.211951 62.321
18608.645202 65.163
18878.948580 67.179
19153.178301 68.068
19431.391396 68.171
19713.645729 67.877
20000.000000 67.460
