* Measurement data measured by REW V5.31.3
* Source: Headset (2- USB-C to 3.5mm Headphone Jack Adapter), MICROPHONE (Master Volume), L, volume: 0.630
* Format: 64k Log Swept Sine, 1 sweep at -30.0 dBFS with no timing reference
* REW Settings:
*  C-weighting compensation: Off
*  Target level: 75.0 dB
* Note: ; 
* Measurement: 3
* Smoothing: 1/24 octave
* Frequency Step: 1/48 octave
* Start Frequency: 1.000 Hz
*
* Freq(Hz) SPL(dB)

20.000000 90.980
20.290514 91.098
20.585247 91.216
20.884262 91.332
21.187621 91.446
21.495385 91.555
21.807621 91.663
22.124391 91.768
22.445763 91.872
22.771804 91.976
23.102580 92.080
23.438160 92.186
23.778616 92.293
24.124017 92.402
24.474435 92.512
24.829943 92.620
25.190615 92.726
25.556526 92.830
25.927752 92.933
26.304370 93.035
26.686459 93.138
27.074098 93.241
27.467368 93.342
27.866351 93.440
28.271129 93.535
28.681786 93.628
29.098409 93.717
29.521083 93.803
29.949897 93.887
30.384940 93.970
30.826303 94.055
31.274076 94.138
31.728353 94.218
32.189229 94.297
32.656800 94.376
33.131163 94.456
33.612416 94.537
34.100659 94.616
34.595995 94.694
35.098525 94.771
35.608355 94.849
36.125591 94.925
36.650340 94.998
37.182712 95.070
37.722816 95.142
38.270766 95.214
38.826675 95.282
39.390660 95.347
39.962836 95.412
40.543324 95.479
41.132243 95.546
41.729717 95.612
42.335870 95.681
42.950828 95.751
43.574718 95.819
44.207671 95.886
44.849818 95.953
45.501292 96.017
46.162230 96.076
46.832768 96.132
47.513046 96.185
48.203206 96.236
48.903391 96.280
49.613746 96.321
50.334420 96.365
51.065562 96.413
51.807325 96.464
52.559862 96.514
53.323330 96.565
54.097888 96.615
54.883697 96.663
55.680920 96.708
56.489724 96.749
57.310276 96.787
58.142747 96.823
58.987311 96.859
59.844142 96.896
60.713419 96.936
61.595324 96.978
62.490038 97.022
63.397749 97.066
64.318645 97.106
65.252917 97.142
66.200761 97.172
67.162372 97.197
68.137952 97.221
69.127703 97.246
70.131830 97.276
71.150543 97.311
72.184054 97.351
73.232577 97.390
74.296331 97.425
75.375536 97.453
76.470417 97.478
77.581203 97.500
78.708123 97.525
79.851413 97.554
81.011310 97.587
82.188055 97.621
83.381893 97.650
84.593072 97.673
85.821845 97.689
87.068466 97.703
88.333195 97.722
89.616296 97.748
90.918034 97.778
92.238681 97.805
93.578512 97.824
94.937804 97.835
96.316841 97.843
97.715909 97.856
99.135300 97.877
100.575309 97.902
102.036234 97.925
103.518381 97.941
105.022056 97.951
106.547574 97.964
108.095251 97.985
109.665409 98.010
111.258374 98.032
112.874479 98.043
114.514058 98.050
116.177454 98.062
117.865011 98.080
119.577082 98.103
121.314021 98.120
123.076191 98.126
124.863957 98.130
126.677692 98.141
128.517773 98.156
130.384582 98.167
132.278507 98.175
134.199944 98.178
136.149290 98.190
138.126952 98.207
140.133341 98.215
142.168875 98.213
144.233975 98.217
146.329073 98.230
148.454604 98.243
150.611009 98.249
152.798738 98.250
155.018244 98.258
157.269991 98.269
159.554446 98.271
161.872084 98.274
164.223387 98.284
166.608845 98.296
169.028953 98.299
171.484215 98.301
173.975141 98.308
176.502250 98.317
179.066067 98.321
181.667125 98.326
184.305965 98.334
186.983136 98.335
189.699194 98.335
192.454706 98.343
195.250243 98.349
198.086387 98.348
200.963728 98.349
203.882864 98.352
206.844403 98.352
209.848961 98.355
212.897161 98.357
215.989639 98.354
219.127037 98.353
222.310008 98.355
225.539214 98.354
228.815326 98.352
232.139026 98.349
235.511005 98.344
238.931965 98.343
242.402616 98.338
245.923681 98.332
249.495892 98.327
253.119991 98.321
256.796733 98.315
260.526882 98.306
264.311215 98.298
268.150517 98.291
272.045588 98.281
275.997237 98.271
280.006287 98.261
284.073571 98.251
288.199935 98.239
292.386238 98.228
296.633349 98.217
300.942152 98.205
305.313544 98.192
309.748434 98.180
314.247743 98.169
318.812408 98.156
323.443377 98.145
328.141615 98.133
332.908098 98.121
337.743817 98.110
342.649778 98.099
347.627002 98.088
352.676523 98.077
357.799393 98.066
362.996675 98.055
368.269452 98.044
373.618819 98.032
379.045889 98.019
384.551792 98.006
390.137671 97.991
395.804689 97.976
401.554025 97.959
407.386873 97.941
413.304448 97.922
419.307980 97.900
425.398716 97.879
431.577926 97.856
437.846892 97.830
444.206919 97.804
450.659331 97.776
457.205468 97.747
463.846692 97.716
470.584384 97.685
477.419946 97.652
484.354799 97.618
491.390386 97.584
498.528170 97.548
505.769634 97.512
513.116286 97.475
520.569654 97.438
528.131286 97.401
535.802756 97.364
543.585660 97.327
551.481616 97.291
559.492266 97.255
567.619276 97.219
575.864337 97.185
584.229163 97.151
592.715493 97.118
601.325094 97.086
610.059754 97.055
618.921292 97.024
627.911550 96.994
637.032397 96.964
646.285731 96.935
655.673476 96.907
665.197585 96.879
674.860038 96.851
684.662844 96.823
694.608043 96.796
704.697703 96.769
714.933922 96.742
725.318829 96.716
735.854584 96.691
746.543379 96.668
757.387435 96.646
768.389009 96.625
779.550388 96.607
790.873894 96.590
802.361881 96.576
814.016740 96.566
825.840893 96.560
837.836800 96.557
850.006956 96.558
862.353892 96.564
874.880176 96.577
887.588413 96.596
900.481245 96.621
913.561355 96.653
926.831463 96.692
940.294327 96.740
953.952750 96.795
967.809570 96.859
981.867670 96.931
996.129973 97.010
1010.599447 97.099
1025.279099 97.194
1040.171984 97.295
1055.281198 97.402
1070.609883 97.513
1086.161229 97.628
1101.938468 97.744
1117.944883 97.861
1134.183801 97.977
1150.658602 98.092
1167.372710 98.202
1184.329602 98.308
1201.532804 98.409
1218.985895 98.505
1236.692504 98.592
1254.656314 98.673
1272.881060 98.746
1291.370534 98.810
1310.128579 98.870
1329.159099 98.922
1348.466049 98.968
1368.053447 99.009
1387.925364 99.044
1408.085935 99.075
1428.539353 99.103
1449.289870 99.129
1470.341803 99.153
1491.699529 99.176
1513.367491 99.198
1535.350196 99.222
1557.652214 99.247
1580.278184 99.274
1603.232812 99.304
1626.520872 99.337
1650.147207 99.374
1674.116731 99.416
1698.434429 99.463
1723.105358 99.517
1748.134649 99.577
1773.527508 99.643
1799.289215 99.718
1825.425129 99.800
1851.940686 99.891
1878.841399 99.991
1906.132863 100.100
1933.820755 100.219
1961.910832 100.350
1990.408937 100.490
2019.320997 100.644
2048.653024 100.809
2078.411119 100.987
2108.601471 101.180
2139.230358 101.386
2170.304151 101.611
2201.829313 101.850
2233.812399 102.110
2266.260061 102.387
2299.179048 102.686
2332.576206 103.007
2366.458481 103.352
2400.832919 103.717
2435.706669 104.108
2471.086985 104.521
2506.981224 104.958
2543.396851 105.413
2580.341441 105.882
2617.822676 106.357
2655.848352 106.824
2694.426377 107.270
2733.564774 107.663
2773.271684 107.990
2813.555364 108.214
2854.424192 108.335
2895.886667 108.307
2937.951414 108.125
2980.627180 107.818
3023.922841 107.407
3067.847402 106.908
3112.409996 106.343
3157.619894 105.746
3203.486496 105.138
3250.019342 104.533
3297.228109 103.944
3345.122616 103.377
3393.712825 102.837
3443.008839 102.323
3493.020912 101.839
3543.759444 101.384
3595.234989 100.957
3647.458251 100.558
3700.440093 100.186
3754.191532 99.843
3808.723747 99.524
3864.048081 99.225
3920.176038 98.956
3977.119293 98.699
4034.889688 98.469
4093.499237 98.258
4152.960131 98.066
4213.284735 97.892
4274.485595 97.735
4336.575440 97.596
4399.567183 97.475
4463.473924 97.371
4528.308954 97.285
4594.085758 97.219
4660.818016 97.170
4728.519605 97.142
4797.204606 97.136
4866.887304 97.149
4937.582192 97.189
5009.303971 97.255
5082.067559 97.346
5155.888088 97.468
5230.780910 97.621
5306.761603 97.804
5383.845967 98.018
5462.050035 98.262
5541.390071 98.527
5621.882575 98.798
5703.544288 99.062
5786.392194 99.279
5870.443523 99.405
5955.715755 99.400
6042.226625 99.235
6129.994125 98.865
6219.036508 98.291
6309.372294 97.514
6401.020268 96.604
6493.999493 95.593
6588.329304 94.535
6684.029322 93.465
6781.119447 92.411
6879.619874 91.384
6979.551087 90.393
7080.933870 89.451
7183.789308 88.563
7288.138791 87.719
7394.004023 86.904
7501.407020 86.107
7610.370119 85.338
7720.915982 84.603
7833.067600 83.902
7946.848298 83.235
8062.281738 82.604
8179.391929 82.006
8298.203226 81.438
8418.740338 80.901
8541.028336 80.400
8665.092650 79.936
8790.959084 79.502
8918.653815 79.102
9048.203399 78.723
9179.634780 78.374
9312.975293 78.057
9448.252668 77.778
9585.495040 77.545
9724.730952 77.362
9865.989362 77.226
10009.299647 77.137
10154.691613 77.093
10302.195497 77.098
10451.841976 77.165
10603.662174 77.297
10757.687664 77.510
10913.950481 77.813
11072.483123 78.212
11233.318560 78.734
11396.490243 79.373
11562.032107 80.216
11729.978580 81.204
11900.364591 82.548
12073.225577 84.039
12248.597487 85.793
12426.516795 87.514
12607.020503 88.519
12790.146152 88.483
12975.931827 86.929
13164.416166 85.246
13355.638371 83.181
13549.638209 81.336
13746.456029 79.803
13946.132763 78.581
14148.709939 77.687
14354.229688 76.952
14562.734753 76.505
14774.268497 76.263
14988.874914 76.270
15206.598638 76.508
15427.484948 76.831
15651.579784 76.986
15878.929752 76.619
16109.582134 75.440
16343.584901 73.442
16580.986719 71.001
16821.836962 68.556
17066.185721 66.013
17314.083813 62.879
17565.582796 59.525
17820.734975 57.628
18079.593414 58.428
18342.211951 61.152
18608.645202 64.000
18878.948580 66.022
19153.178301 66.917
19431.391396 67.027
19713.645729 66.739
20000.000000 66.328
