* Measurement data measured by REW V5.31.3
* Source: Headset (2- USB-C to 3.5mm Headphone Jack Adapter), MICROPHONE (Master Volume), L, volume: 0.630
* Format: 64k Log Swept Sine, 1 sweep at -30.0 dBFS with no timing reference
* REW Settings:
*  C-weighting compensation: Off
*  Target level: 75.0 dB
* Note: ; 
* Measurement: 10
* Smoothing: 1/24 octave
* Frequency Step: 1/48 octave
* Start Frequency: 1.000 Hz
*
* Freq(Hz) SPL(dB)

20.000000 91.367
20.290514 91.489
20.585247 91.613
20.884262 91.736
21.187621 91.857
21.495385 91.974
21.807621 92.091
22.124391 92.204
22.445763 92.317
22.771804 92.430
23.102580 92.542
23.438160 92.655
23.778616 92.769
24.124017 92.884
24.474435 92.998
24.829943 93.110
25.190615 93.219
25.556526 93.324
25.927752 93.427
26.304370 93.529
26.686459 93.631
27.074098 93.732
27.467368 93.830
27.866351 93.926
28.271129 94.019
28.681786 94.109
29.098409 94.196
29.521083 94.280
29.949897 94.362
30.384940 94.446
30.826303 94.530
31.274076 94.614
31.728353 94.695
32.189229 94.775
32.656800 94.855
33.131163 94.936
33.612416 95.018
34.100659 95.098
34.595995 95.175
35.098525 95.251
35.608355 95.328
36.125591 95.402
36.650340 95.472
37.182712 95.542
37.722816 95.611
38.270766 95.681
38.826675 95.746
39.390660 95.809
39.962836 95.873
40.543324 95.938
41.132243 96.003
41.729717 96.070
42.335870 96.138
42.950828 96.208
43.574718 96.277
44.207671 96.344
44.849818 96.411
45.501292 96.476
46.162230 96.535
46.832768 96.591
47.513046 96.644
48.203206 96.694
48.903391 96.737
49.613746 96.777
50.334420 96.819
51.065562 96.865
51.807325 96.913
52.559862 96.961
53.323330 97.008
54.097888 97.053
54.883697 97.098
55.680920 97.138
56.489724 97.173
57.310276 97.206
58.142747 97.236
58.987311 97.266
59.844142 97.298
60.713419 97.331
61.595324 97.367
62.490038 97.404
63.397749 97.442
64.318645 97.476
65.252917 97.505
66.200761 97.528
67.162372 97.546
68.137952 97.561
69.127703 97.578
70.131830 97.598
71.150543 97.623
72.184054 97.651
73.232577 97.679
74.296331 97.701
75.375536 97.716
76.470417 97.727
77.581203 97.734
78.708123 97.744
79.851413 97.759
81.011310 97.777
82.188055 97.796
83.381893 97.811
84.593072 97.819
85.821845 97.821
87.068466 97.823
88.333195 97.829
89.616296 97.843
90.918034 97.861
92.238681 97.878
93.578512 97.887
94.937804 97.888
96.316841 97.886
97.715909 97.889
99.135300 97.901
100.575309 97.918
102.036234 97.931
103.518381 97.938
105.022056 97.940
106.547574 97.944
108.095251 97.956
109.665409 97.973
111.258374 97.987
112.874479 97.991
114.514058 97.991
116.177454 97.997
117.865011 98.011
119.577082 98.029
121.314021 98.043
123.076191 98.046
124.863957 98.048
126.677692 98.059
128.517773 98.074
130.384582 98.086
132.278507 98.094
134.199944 98.099
136.149290 98.114
138.126952 98.134
140.133341 98.145
142.168875 98.146
144.233975 98.154
146.329073 98.170
148.454604 98.186
150.611009 98.196
152.798738 98.200
155.018244 98.211
157.269991 98.224
159.554446 98.228
161.872084 98.231
164.223387 98.242
166.608845 98.253
169.028953 98.254
171.484215 98.253
173.975141 98.257
176.502250 98.261
179.066067 98.260
181.667125 98.260
184.305965 98.261
186.983136 98.256
189.699194 98.249
192.454706 98.250
195.250243 98.249
198.086387 98.241
200.963728 98.236
203.882864 98.234
206.844403 98.230
209.848961 98.228
212.897161 98.228
215.989639 98.223
219.127037 98.222
222.310008 98.224
225.539214 98.226
228.815326 98.227
232.139026 98.228
235.511005 98.230
238.931965 98.235
242.402616 98.238
245.923681 98.241
249.495892 98.246
253.119991 98.251
256.796733 98.255
260.526882 98.258
264.311215 98.262
268.150517 98.268
272.045588 98.271
275.997237 98.275
280.006287 98.278
284.073571 98.282
288.199935 98.282
292.386238 98.284
296.633349 98.285
300.942152 98.284
305.313544 98.283
309.748434 98.281
314.247743 98.279
318.812408 98.275
323.443377 98.271
328.141615 98.267
332.908098 98.262
337.743817 98.256
342.649778 98.250
347.627002 98.243
352.676523 98.235
357.799393 98.228
362.996675 98.218
368.269452 98.209
373.618819 98.198
379.045889 98.186
384.551792 98.173
390.137671 98.159
395.804689 98.143
401.554025 98.126
407.386873 98.107
413.304448 98.088
419.307980 98.068
425.398716 98.049
431.577926 98.029
437.846892 98.008
444.206919 97.988
450.659331 97.968
457.205468 97.948
463.846692 97.928
470.584384 97.909
477.419946 97.890
484.354799 97.871
491.390386 97.852
498.528170 97.834
505.769634 97.814
513.116286 97.794
520.569654 97.773
528.131286 97.752
535.802756 97.730
543.585660 97.706
551.481616 97.682
559.492266 97.657
567.619276 97.631
575.864337 97.605
584.229163 97.578
592.715493 97.551
601.325094 97.523
610.059754 97.496
618.921292 97.468
627.911550 97.440
637.032397 97.414
646.285731 97.388
655.673476 97.362
665.197585 97.338
674.860038 97.314
684.662844 97.292
694.608043 97.270
704.697703 97.250
714.933922 97.231
725.318829 97.214
735.854584 97.199
746.543379 97.186
757.387435 97.175
768.389009 97.166
779.550388 97.159
790.873894 97.156
802.361881 97.155
814.016740 97.158
825.840893 97.164
837.836800 97.174
850.006956 97.188
862.353892 97.207
874.880176 97.231
887.588413 97.262
900.481245 97.297
913.561355 97.340
926.831463 97.388
940.294327 97.444
953.952750 97.506
967.809570 97.576
981.867670 97.653
996.129973 97.737
1010.599447 97.829
1025.279099 97.927
1040.171984 98.029
1055.281198 98.137
1070.609883 98.249
1086.161229 98.364
1101.938468 98.481
1117.944883 98.598
1134.183801 98.715
1150.658602 98.831
1167.372710 98.943
1184.329602 99.053
1201.532804 99.159
1218.985895 99.261
1236.692504 99.356
1254.656314 99.446
1272.881060 99.530
1291.370534 99.606
1310.128579 99.680
1329.159099 99.747
1348.466049 99.809
1368.053447 99.866
1387.925364 99.919
1408.085935 99.966
1428.539353 100.012
1449.289870 100.054
1470.341803 100.093
1491.699529 100.130
1513.367491 100.165
1535.350196 100.200
1557.652214 100.235
1580.278184 100.271
1603.232812 100.308
1626.520872 100.346
1650.147207 100.387
1674.116731 100.431
1698.434429 100.479
1723.105358 100.532
1748.134649 100.590
1773.527508 100.654
1799.289215 100.725
1825.425129 100.803
1851.940686 100.889
1878.841399 100.985
1906.132863 101.089
1933.820755 101.203
1961.910832 101.329
1990.408937 101.465
2019.320997 101.614
2048.653024 101.775
2078.411119 101.950
2108.601471 102.139
2139.230358 102.343
2170.304151 102.565
2201.829313 102.802
2233.812399 103.060
2266.260061 103.336
2299.179048 103.633
2332.576206 103.953
2366.458481 104.296
2400.832919 104.660
2435.706669 105.050
2471.086985 105.462
2506.981224 105.897
2543.396851 106.350
2580.341441 106.817
2617.822676 107.290
2655.848352 107.755
2694.426377 108.199
2733.564774 108.591
2773.271684 108.917
2813.555364 109.141
2854.424192 109.262
2895.886667 109.235
2937.951414 109.055
2980.627180 108.751
3023.922841 108.344
3067.847402 107.849
3112.409996 107.290
3157.619894 106.698
3203.486496 106.095
3250.019342 105.495
3297.228109 104.911
3345.122616 104.347
3393.712825 103.809
3443.008839 103.297
3493.020912 102.812
3543.759444 102.355
3595.234989 101.924
3647.458251 101.520
3700.440093 101.143
3754.191532 100.792
3808.723747 100.466
3864.048081 100.159
3920.176038 99.881
3977.119293 99.617
4034.889688 99.380
4093.499237 99.163
4152.960131 98.966
4213.284735 98.789
4274.485595 98.629
4336.575440 98.489
4399.567183 98.369
4463.473924 98.267
4528.308954 98.183
4594.085758 98.121
4660.818016 98.078
4728.519605 98.056
4797.204606 98.056
4866.887304 98.077
4937.582192 98.125
5009.303971 98.199
5082.067559 98.298
5155.888088 98.427
5230.780910 98.588
5306.761603 98.777
5383.845967 98.998
5462.050035 99.247
5541.390071 99.516
5621.882575 99.789
5703.544288 100.054
5786.392194 100.271
5870.443523 100.394
5955.715755 100.383
6042.226625 100.212
6129.994125 99.833
6219.036508 99.248
6309.372294 98.459
6401.020268 97.536
6493.999493 96.510
6588.329304 95.437
6684.029322 94.353
6781.119447 93.284
6879.619874 92.242
6979.551087 91.237
7080.933870 90.282
7183.789308 89.383
7288.138791 88.528
7394.004023 87.703
7501.407020 86.898
7610.370119 86.122
7720.915982 85.381
7833.067600 84.675
7946.848298 84.003
8062.281738 83.369
8179.391929 82.768
8298.203226 82.197
8418.740338 81.658
8541.028336 81.155
8665.092650 80.689
8790.959084 80.252
8918.653815 79.850
9048.203399 79.468
9179.634780 79.116
9312.975293 78.794
9448.252668 78.510
9585.495040 78.272
9724.730952 78.083
9865.989362 77.939
10009.299647 77.842
10154.691613 77.789
10302.195497 77.784
10451.841976 77.841
10603.662174 77.961
10757.687664 78.162
10913.950481 78.453
11072.483123 78.840
11233.318560 79.348
11396.490243 79.974
11562.032107 80.805
11729.978580 81.781
11900.364591 83.114
12073.225577 84.595
12248.597487 86.340
12426.516795 88.052
12607.020503 89.050
12790.146152 89.009
12975.931827 87.450
13164.416166 85.764
13355.638371 83.698
13549.638209 81.852
13746.456029 80.319
13946.132763 79.098
14148.709939 78.205
14354.229688 77.472
14562.734753 77.025
14774.268497 76.784
14988.874914 76.791
15206.598638 77.028
15427.484948 77.348
15651.579784 77.498
15878.929752 77.126
16109.582134 75.939
16343.584901 73.931
16580.986719 71.478
16821.836962 69.019
17066.185721 66.461
17314.083813 63.310
17565.582796 59.938
17820.734975 58.022
18079.593414 58.803
18342.211951 61.508
18608.645202 64.337
18878.948580 66.341
19153.178301 67.221
19431.391396 67.316
19713.645729 67.016
20000.000000 66.596
