* Measurement data measured by REW V5.31.3
* Source: Headset (2- USB-C to 3.5mm Headphone Jack Adapter), MICROPHONE (Master Volume), L, volume: 0.630
* Format: 64k Log Swept Sine, 1 sweep at -30.0 dBFS with no timing reference
* REW Settings:
*  C-weighting compensation: Off
*  Target level: 75.0 dB
* Note: ; 
* Measurement: 11
* Smoothing: 1/24 octave
* Frequency Step: 1/48 octave
* Start Frequency: 1.000 Hz
*
* Freq(Hz) SPL(dB)

20.000000 90.944
20.290514 91.065
20.585247 91.186
20.884262 91.305
21.187621 91.420
21.495385 91.531
21.807621 91.639
22.124391 91.744
22.445763 91.847
22.771804 91.950
23.102580 92.052
23.438160 92.156
23.778616 92.261
24.124017 92.368
24.474435 92.476
24.829943 92.583
25.190615 92.688
25.556526 92.792
25.927752 92.895
26.304370 92.998
26.686459 93.103
27.074098 93.209
27.467368 93.314
27.866351 93.417
28.271129 93.518
28.681786 93.617
29.098409 93.714
29.521083 93.808
29.949897 93.901
30.384940 93.995
30.826303 94.091
31.274076 94.186
31.728353 94.279
32.189229 94.372
32.656800 94.464
33.131163 94.560
33.612416 94.656
34.100659 94.750
34.595995 94.842
35.098525 94.934
35.608355 95.026
36.125591 95.116
36.650340 95.202
37.182712 95.286
37.722816 95.370
38.270766 95.453
38.826675 95.532
39.390660 95.606
39.962836 95.681
40.543324 95.756
41.132243 95.831
41.729717 95.905
42.335870 95.982
42.950828 96.058
43.574718 96.133
44.207671 96.207
44.849818 96.280
45.501292 96.351
46.162230 96.417
46.832768 96.479
47.513046 96.539
48.203206 96.598
48.903391 96.649
49.613746 96.699
50.334420 96.751
51.065562 96.807
51.807325 96.866
52.559862 96.925
53.323330 96.984
54.097888 97.042
54.883697 97.098
55.680920 97.150
56.489724 97.197
57.310276 97.242
58.142747 97.284
58.987311 97.326
59.844142 97.370
60.713419 97.415
61.595324 97.463
62.490038 97.514
63.397749 97.564
64.318645 97.612
65.252917 97.655
66.200761 97.692
67.162372 97.725
68.137952 97.756
69.127703 97.788
70.131830 97.825
71.150543 97.867
72.184054 97.913
73.232577 97.958
74.296331 97.997
75.375536 98.030
76.470417 98.058
77.581203 98.084
78.708123 98.111
79.851413 98.142
81.011310 98.177
82.188055 98.213
83.381893 98.243
84.593072 98.267
85.821845 98.284
87.068466 98.300
88.333195 98.320
89.616296 98.348
90.918034 98.379
92.238681 98.408
93.578512 98.428
94.937804 98.439
96.316841 98.446
97.715909 98.458
99.135300 98.476
100.575309 98.499
102.036234 98.517
103.518381 98.527
105.022056 98.531
106.547574 98.537
108.095251 98.550
109.665409 98.567
111.258374 98.580
112.874479 98.583
114.514058 98.582
116.177454 98.587
117.865011 98.598
119.577082 98.615
121.314021 98.627
123.076191 98.628
124.863957 98.628
126.677692 98.636
128.517773 98.648
130.384582 98.656
132.278507 98.660
134.199944 98.661
136.149290 98.670
138.126952 98.684
140.133341 98.689
142.168875 98.684
144.233975 98.685
146.329073 98.695
148.454604 98.704
150.611009 98.707
152.798738 98.705
155.018244 98.711
157.269991 98.719
159.554446 98.719
161.872084 98.719
164.223387 98.728
166.608845 98.737
169.028953 98.739
171.484215 98.738
173.975141 98.744
176.502250 98.750
179.066067 98.752
181.667125 98.754
184.305965 98.759
186.983136 98.758
189.699194 98.754
192.454706 98.757
195.250243 98.758
198.086387 98.752
200.963728 98.747
203.882864 98.744
206.844403 98.738
209.848961 98.733
212.897161 98.729
215.989639 98.719
219.127037 98.711
222.310008 98.707
225.539214 98.700
228.815326 98.693
232.139026 98.685
235.511005 98.677
238.931965 98.673
242.402616 98.666
245.923681 98.657
249.495892 98.652
253.119991 98.646
256.796733 98.639
260.526882 98.631
264.311215 98.624
268.150517 98.618
272.045588 98.609
275.997237 98.602
280.006287 98.594
284.073571 98.586
288.199935 98.576
292.386238 98.567
296.633349 98.558
300.942152 98.548
305.313544 98.538
309.748434 98.528
314.247743 98.518
318.812408 98.506
323.443377 98.496
328.141615 98.484
332.908098 98.472
337.743817 98.460
342.649778 98.448
347.627002 98.434
352.676523 98.421
357.799393 98.406
362.996675 98.391
368.269452 98.376
373.618819 98.360
379.045889 98.343
384.551792 98.325
390.137671 98.306
395.804689 98.286
401.554025 98.266
407.386873 98.244
413.304448 98.221
419.307980 98.198
425.398716 98.175
431.577926 98.151
437.846892 98.126
444.206919 98.101
450.659331 98.076
457.205468 98.050
463.846692 98.022
470.584384 97.995
477.419946 97.968
484.354799 97.940
491.390386 97.911
498.528170 97.882
505.769634 97.852
513.116286 97.822
520.569654 97.792
528.131286 97.762
535.802756 97.731
543.585660 97.700
551.481616 97.670
559.492266 97.639
567.619276 97.608
575.864337 97.577
584.229163 97.547
592.715493 97.517
601.325094 97.487
610.059754 97.456
618.921292 97.426
627.911550 97.395
637.032397 97.365
646.285731 97.335
655.673476 97.306
665.197585 97.276
674.860038 97.246
684.662844 97.217
694.608043 97.188
704.697703 97.159
714.933922 97.132
725.318829 97.106
735.854584 97.082
746.543379 97.059
757.387435 97.039
768.389009 97.022
779.550388 97.008
790.873894 96.998
802.361881 96.991
814.016740 96.990
825.840893 96.994
837.836800 97.003
850.006956 97.017
862.353892 97.038
874.880176 97.066
887.588413 97.101
900.481245 97.142
913.561355 97.190
926.831463 97.245
940.294327 97.308
953.952750 97.377
967.809570 97.453
981.867670 97.535
996.129973 97.624
1010.599447 97.718
1025.279099 97.818
1040.171984 97.922
1055.281198 98.030
1070.609883 98.140
1086.161229 98.252
1101.938468 98.365
1117.944883 98.477
1134.183801 98.588
1150.658602 98.697
1167.372710 98.802
1184.329602 98.903
1201.532804 99.000
1218.985895 99.092
1236.692504 99.176
1254.656314 99.255
1272.881060 99.328
1291.370534 99.392
1310.128579 99.454
1329.159099 99.508
1348.466049 99.557
1368.053447 99.600
1387.925364 99.639
1408.085935 99.672
1428.539353 99.702
1449.289870 99.729
1470.341803 99.753
1491.699529 99.775
1513.367491 99.796
1535.350196 99.816
1557.652214 99.837
1580.278184 99.860
1603.232812 99.884
1626.520872 99.910
1650.147207 99.940
1674.116731 99.974
1698.434429 100.013
1723.105358 100.058
1748.134649 100.108
1773.527508 100.164
1799.289215 100.227
1825.425129 100.298
1851.940686 100.377
1878.841399 100.465
1906.132863 100.562
1933.820755 100.669
1961.910832 100.786
1990.408937 100.915
2019.320997 101.057
2048.653024 101.211
2078.411119 101.380
2108.601471 101.563
2139.230358 101.762
2170.304151 101.980
2201.829313 102.214
2233.812399 102.469
2266.260061 102.743
2299.179048 103.038
2332.576206 103.357
2366.458481 103.699
2400.832919 104.062
2435.706669 104.452
2471.086985 104.863
2506.981224 105.297
2543.396851 105.748
2580.341441 106.214
2617.822676 106.684
2655.848352 107.147
2694.426377 107.587
2733.564774 107.975
2773.271684 108.297
2813.555364 108.515
2854.424192 108.629
2895.886667 108.594
2937.951414 108.406
2980.627180 108.092
3023.922841 107.675
3067.847402 107.169
3112.409996 106.597
3157.619894 105.993
3203.486496 105.378
3250.019342 104.765
3297.228109 104.168
3345.122616 103.592
3393.712825 103.043
3443.008839 102.520
3493.020912 102.025
3543.759444 101.559
3595.234989 101.121
3647.458251 100.711
3700.440093 100.328
3754.191532 99.973
3808.723747 99.644
3864.048081 99.333
3920.176038 99.053
3977.119293 98.785
4034.889688 98.545
4093.499237 98.323
4152.960131 98.121
4213.284735 97.938
4274.485595 97.771
4336.575440 97.624
4399.567183 97.495
4463.473924 97.382
4528.308954 97.287
4594.085758 97.214
4660.818016 97.158
4728.519605 97.124
4797.204606 97.111
4866.887304 97.120
4937.582192 97.156
5009.303971 97.219
5082.067559 97.308
5155.888088 97.429
5230.780910 97.582
5306.761603 97.765
5383.845967 97.981
5462.050035 98.227
5541.390071 98.494
5621.882575 98.767
5703.544288 99.033
5786.392194 99.252
5870.443523 99.379
5955.715755 99.374
6042.226625 99.209
6129.994125 98.838
6219.036508 98.263
6309.372294 97.484
6401.020268 96.572
6493.999493 95.558
6588.329304 94.497
6684.029322 93.425
6781.119447 92.368
6879.619874 91.338
6979.551087 90.345
7080.933870 89.401
7183.789308 88.512
7288.138791 87.666
7394.004023 86.850
7501.407020 86.052
7610.370119 85.282
7720.915982 84.546
7833.067600 83.844
7946.848298 83.175
8062.281738 82.542
8179.391929 81.942
8298.203226 81.372
8418.740338 80.832
8541.028336 80.329
8665.092650 79.863
8790.959084 79.427
8918.653815 79.026
9048.203399 78.647
9179.634780 78.299
9312.975293 77.984
9448.252668 77.707
9585.495040 77.479
9724.730952 77.301
9865.989362 77.172
10009.299647 77.091
10154.691613 77.055
10302.195497 77.068
10451.841976 77.144
10603.662174 77.283
10757.687664 77.503
10913.950481 77.812
11072.483123 78.216
11233.318560 78.741
11396.490243 79.382
11562.032107 80.224
11729.978580 81.211
11900.364591 82.552
12073.225577 84.040
12248.597487 85.790
12426.516795 87.505
12607.020503 88.505
12790.146152 88.464
12975.931827 86.906
13164.416166 85.219
13355.638371 83.151
13549.638209 81.305
13746.456029 79.771
13946.132763 78.549
14148.709939 77.656
14354.229688 76.923
14562.734753 76.477
14774.268497 76.237
14988.874914 76.245
15206.598638 76.484
15427.484948 76.807
15651.579784 76.960
15878.929752 76.591
16109.582134 75.408
16343.584901 73.404
16580.986719 70.956
16821.836962 68.503
17066.185721 65.952
17314.083813 62.808
17565.582796 59.443
17820.734975 57.535
18079.593414 58.324
18342.211951 61.037
18608.645202 63.875
18878.948580 65.888
19153.178301 66.776
19431.391396 66.879
19713.645729 66.587
20000.000000 66.174
