* Measurement data measured by REW V5.31.3
* Source: Headset (2- USB-C to 3.5mm Headphone Jack Adapter), MICROPHONE (Master Volume), L, volume: 0.630
* Format: 64k Log Swept Sine, 1 sweep at -30.0 dBFS with no timing reference
* REW Settings:
*  C-weighting compensation: Off
*  Target level: 75.0 dB
* Note: ; 
* Measurement: 16
* Smoothing: 1/24 octave
* Frequency Step: 1/48 octave
* Start Frequency: 1.000 Hz
*
* Freq(Hz) SPL(dB)

20.000000 91.291
20.290514 91.415
20.585247 91.540
20.884262 91.665
21.187621 91.789
21.495385 91.909
21.807621 92.028
22.124391 92.145
22.445763 92.262
22.771804 92.378
23.102580 92.495
23.438160 92.612
23.778616 92.732
24.124017 92.852
24.474435 92.972
24.829943 93.092
25.190615 93.208
25.556526 93.322
25.927752 93.435
26.304370 93.547
26.686459 93.660
27.074098 93.774
27.467368 93.886
27.866351 93.995
28.271129 94.103
28.681786 94.207
29.098409 94.309
29.521083 94.409
29.949897 94.506
30.384940 94.604
30.826303 94.702
31.274076 94.799
31.728353 94.893
32.189229 94.985
32.656800 95.075
33.131163 95.167
33.612416 95.258
34.100659 95.346
34.595995 95.431
35.098525 95.514
35.608355 95.597
36.125591 95.676
36.650340 95.752
37.182712 95.825
37.722816 95.899
38.270766 95.972
38.826675 96.040
39.390660 96.106
39.962836 96.173
40.543324 96.242
41.132243 96.312
41.729717 96.383
42.335870 96.458
42.950828 96.536
43.574718 96.613
44.207671 96.692
44.849818 96.771
45.501292 96.850
46.162230 96.925
46.832768 96.998
47.513046 97.069
48.203206 97.138
48.903391 97.200
49.613746 97.260
50.334420 97.321
51.065562 97.385
51.807325 97.451
52.559862 97.515
53.323330 97.577
54.097888 97.637
54.883697 97.694
55.680920 97.745
56.489724 97.791
57.310276 97.834
58.142747 97.874
58.987311 97.914
59.844142 97.955
60.713419 97.998
61.595324 98.045
62.490038 98.095
63.397749 98.144
64.318645 98.192
65.252917 98.236
66.200761 98.274
67.162372 98.308
68.137952 98.340
69.127703 98.373
70.131830 98.411
71.150543 98.454
72.184054 98.500
73.232577 98.544
74.296331 98.583
75.375536 98.615
76.470417 98.641
77.581203 98.664
78.708123 98.689
79.851413 98.717
81.011310 98.750
82.188055 98.781
83.381893 98.808
84.593072 98.828
85.821845 98.841
87.068466 98.853
88.333195 98.869
89.616296 98.893
90.918034 98.920
92.238681 98.946
93.578512 98.963
94.937804 98.973
96.316841 98.980
97.715909 98.992
99.135300 99.013
100.575309 99.039
102.036234 99.062
103.518381 99.078
105.022056 99.091
106.547574 99.106
108.095251 99.129
109.665409 99.158
111.258374 99.183
112.874479 99.200
114.514058 99.211
116.177454 99.230
117.865011 99.255
119.577082 99.285
121.314021 99.310
123.076191 99.324
124.863957 99.336
126.677692 99.354
128.517773 99.376
130.384582 99.393
132.278507 99.406
134.199944 99.414
136.149290 99.429
138.126952 99.448
140.133341 99.457
142.168875 99.456
144.233975 99.459
146.329073 99.470
148.454604 99.480
150.611009 99.483
152.798738 99.480
155.018244 99.484
157.269991 99.490
159.554446 99.487
161.872084 99.483
164.223387 99.488
166.608845 99.493
169.028953 99.489
171.484215 99.483
173.975141 99.483
176.502250 99.484
179.066067 99.480
181.667125 99.477
184.305965 99.477
186.983136 99.470
189.699194 99.461
192.454706 99.460
195.250243 99.457
198.086387 99.446
200.963728 99.437
203.882864 99.431
206.844403 99.421
209.848961 99.413
212.897161 99.405
215.989639 99.391
219.127037 99.379
222.310008 99.371
225.539214 99.360
228.815326 99.348
232.139026 99.336
235.511005 99.323
238.931965 99.314
242.402616 99.302
245.923681 99.289
249.495892 99.279
253.119991 99.268
256.796733 99.256
260.526882 99.243
264.311215 99.231
268.150517 99.220
272.045588 99.206
275.997237 99.193
280.006287 99.180
284.073571 99.167
288.199935 99.152
292.386238 99.138
296.633349 99.125
300.942152 99.111
305.313544 99.096
309.748434 99.083
314.247743 99.071
318.812408 99.057
323.443377 99.044
328.141615 99.032
332.908098 99.019
337.743817 99.007
342.649778 98.994
347.627002 98.980
352.676523 98.966
357.799393 98.951
362.996675 98.935
368.269452 98.919
373.618819 98.901
379.045889 98.881
384.551792 98.861
390.137671 98.838
395.804689 98.814
401.554025 98.789
407.386873 98.762
413.304448 98.734
419.307980 98.704
425.398716 98.675
431.577926 98.644
437.846892 98.612
444.206919 98.580
450.659331 98.547
457.205468 98.513
463.846692 98.479
470.584384 98.446
477.419946 98.412
484.354799 98.379
491.390386 98.346
498.528170 98.313
505.769634 98.280
513.116286 98.247
520.569654 98.215
528.131286 98.184
535.802756 98.152
543.585660 98.120
551.481616 98.089
559.492266 98.057
567.619276 98.026
575.864337 97.994
584.229163 97.963
592.715493 97.932
601.325094 97.900
610.059754 97.869
618.921292 97.838
627.911550 97.806
637.032397 97.776
646.285731 97.746
655.673476 97.716
665.197585 97.687
674.860038 97.659
684.662844 97.631
694.608043 97.605
704.697703 97.578
714.933922 97.553
725.318829 97.529
735.854584 97.507
746.543379 97.485
757.387435 97.466
768.389009 97.448
779.550388 97.433
790.873894 97.419
802.361881 97.408
814.016740 97.401
825.840893 97.398
837.836800 97.398
850.006956 97.403
862.353892 97.413
874.880176 97.428
887.588413 97.450
900.481245 97.478
913.561355 97.512
926.831463 97.553
940.294327 97.601
953.952750 97.657
967.809570 97.720
981.867670 97.790
996.129973 97.867
1010.599447 97.953
1025.279099 98.044
1040.171984 98.141
1055.281198 98.244
1070.609883 98.351
1086.161229 98.461
1101.938468 98.574
1117.944883 98.689
1134.183801 98.803
1150.658602 98.917
1167.372710 99.028
1184.329602 99.136
1201.532804 99.240
1218.985895 99.340
1236.692504 99.432
1254.656314 99.519
1272.881060 99.599
1291.370534 99.669
1310.128579 99.736
1329.159099 99.795
1348.466049 99.848
1368.053447 99.895
1387.925364 99.935
1408.085935 99.971
1428.539353 100.003
1449.289870 100.032
1470.341803 100.059
1491.699529 100.083
1513.367491 100.107
1535.350196 100.131
1557.652214 100.156
1580.278184 100.183
1603.232812 100.213
1626.520872 100.245
1650.147207 100.282
1674.116731 100.323
1698.434429 100.369
1723.105358 100.421
1748.134649 100.479
1773.527508 100.544
1799.289215 100.616
1825.425129 100.695
1851.940686 100.783
1878.841399 100.879
1906.132863 100.983
1933.820755 101.098
1961.910832 101.222
1990.408937 101.357
2019.320997 101.503
2048.653024 101.660
2078.411119 101.830
2108.601471 102.014
2139.230358 102.211
2170.304151 102.427
2201.829313 102.656
2233.812399 102.905
2266.260061 103.172
2299.179048 103.459
2332.576206 103.769
2366.458481 104.102
2400.832919 104.455
2435.706669 104.834
2471.086985 105.234
2506.981224 105.658
2543.396851 106.099
2580.341441 106.554
2617.822676 107.014
2655.848352 107.467
2694.426377 107.898
2733.564774 108.277
2773.271684 108.590
2813.555364 108.800
2854.424192 108.908
2895.886667 108.867
2937.951414 108.674
2980.627180 108.356
3023.922841 107.936
3067.847402 107.429
3112.409996 106.857
3157.619894 106.255
3203.486496 105.641
3250.019342 105.031
3297.228109 104.439
3345.122616 103.868
3393.712825 103.324
3443.008839 102.808
3493.020912 102.319
3543.759444 101.859
3595.234989 101.427
3647.458251 101.023
3700.440093 100.645
3754.191532 100.294
3808.723747 99.968
3864.048081 99.661
3920.176038 99.382
3977.119293 99.117
4034.889688 98.877
4093.499237 98.656
4152.960131 98.454
4213.284735 98.271
4274.485595 98.104
4336.575440 97.956
4399.567183 97.827
4463.473924 97.715
4528.308954 97.621
4594.085758 97.549
4660.818016 97.495
4728.519605 97.465
4797.204606 97.457
4866.887304 97.472
4937.582192 97.515
5009.303971 97.586
5082.067559 97.684
5155.888088 97.815
5230.780910 97.978
5306.761603 98.172
5383.845967 98.398
5462.050035 98.654
5541.390071 98.929
5621.882575 99.209
5703.544288 99.481
5786.392194 99.704
5870.443523 99.833
5955.715755 99.828
6042.226625 99.661
6129.994125 99.286
6219.036508 98.705
6309.372294 97.919
6401.020268 96.999
6493.999493 95.976
6588.329304 94.906
6684.029322 93.825
6781.119447 92.759
6879.619874 91.721
6979.551087 90.721
7080.933870 89.771
7183.789308 88.877
7288.138791 88.029
7394.004023 87.212
7501.407020 86.415
7610.370119 85.647
7720.915982 84.915
7833.067600 84.218
7946.848298 83.556
8062.281738 82.931
8179.391929 82.340
8298.203226 81.779
8418.740338 81.250
8541.028336 80.757
8665.092650 80.299
8790.959084 79.872
8918.653815 79.478
9048.203399 79.104
9179.634780 78.760
9312.975293 78.445
9448.252668 78.168
9585.495040 77.936
9724.730952 77.753
9865.989362 77.617
10009.299647 77.527
10154.691613 77.481
10302.195497 77.483
10451.841976 77.549
10603.662174 77.677
10757.687664 77.887
10913.950481 78.186
11072.483123 78.583
11233.318560 79.101
11396.490243 79.737
11562.032107 80.577
11729.978580 81.562
11900.364591 82.904
12073.225577 84.393
12248.597487 86.146
12426.516795 87.866
12607.020503 88.871
12790.146152 88.835
12975.931827 87.282
13164.416166 85.600
13355.638371 83.537
13549.638209 81.694
13746.456029 80.163
13946.132763 78.943
14148.709939 78.050
14354.229688 77.316
14562.734753 76.868
14774.268497 76.625
14988.874914 76.629
15206.598638 76.864
15427.484948 77.182
15651.579784 77.330
15878.929752 76.957
16109.582134 75.769
16343.584901 73.761
16580.986719 71.310
16821.836962 68.854
17066.185721 66.300
17314.083813 63.154
17565.582796 59.788
17820.734975 57.880
18079.593414 58.668
18342.211951 61.382
18608.645202 64.220
18878.948580 66.234
19153.178301 67.123
19431.391396 67.227
19713.645729 66.935
20000.000000 66.522
